##          Q2              z             GE(M)n            dGE(M)n               GDip
1.00000000e-06 -5.19193167e-01   2.9236177168e-07   3.1619938108e-07   9.9999718310e-01
1.01157945e-06 -5.19193140e-01   2.9574720333e-07   3.1986068379e-07   9.9999715049e-01
1.02329299e-06 -5.19193112e-01   2.9917183742e-07   3.2356437981e-07   9.9999711749e-01
1.03514217e-06 -5.19193085e-01   3.0263612789e-07   3.2731095985e-07   9.9999708411e-01
1.04712855e-06 -5.19193057e-01   3.0614053399e-07   3.3110092050e-07   9.9999705035e-01
1.05925373e-06 -5.19193028e-01   3.0968552021e-07   3.3493476397e-07   9.9999701619e-01
1.07151931e-06 -5.19192999e-01   3.1327155655e-07   3.3881299839e-07   9.9999698164e-01
1.08392691e-06 -5.19192970e-01   3.1689911828e-07   3.4273613767e-07   9.9999694669e-01
1.09647820e-06 -5.19192941e-01   3.2056868635e-07   3.4670470171e-07   9.9999691134e-01
1.10917482e-06 -5.19192911e-01   3.2428074718e-07   3.5071921646e-07   9.9999687557e-01
1.12201845e-06 -5.19192881e-01   3.2803579278e-07   3.5478021391e-07   9.9999683939e-01
1.13501082e-06 -5.19192851e-01   3.3183432101e-07   3.5888823226e-07   9.9999680279e-01
1.14815362e-06 -5.19192820e-01   3.3567683528e-07   3.6304381586e-07   9.9999676577e-01
1.16144861e-06 -5.19192789e-01   3.3956384508e-07   3.6724751547e-07   9.9999672832e-01
1.17489755e-06 -5.19192757e-01   3.4349586559e-07   3.7149988813e-07   9.9999669044e-01
1.18850223e-06 -5.19192725e-01   3.4747341810e-07   3.7580149738e-07   9.9999665211e-01
1.20226443e-06 -5.19192693e-01   3.5149702981e-07   3.8015291329e-07   9.9999661335e-01
1.21618600e-06 -5.19192660e-01   3.5556723415e-07   3.8455471247e-07   9.9999657413e-01
1.23026877e-06 -5.19192627e-01   3.5968457063e-07   3.8900747824e-07   9.9999653446e-01
1.24451461e-06 -5.19192594e-01   3.6384958505e-07   3.9351180070e-07   9.9999649433e-01
1.25892541e-06 -5.19192560e-01   3.6806282960e-07   3.9806827678e-07   9.9999645374e-01
1.27350308e-06 -5.19192526e-01   3.7232486268e-07   4.0267751025e-07   9.9999641268e-01
1.28824955e-06 -5.19192492e-01   3.7663624933e-07   4.0734011195e-07   9.9999637114e-01
1.30316678e-06 -5.19192457e-01   3.8099756107e-07   4.1205669974e-07   9.9999632912e-01
1.31825674e-06 -5.19192421e-01   3.8540937605e-07   4.1682789868e-07   9.9999628661e-01
1.33352143e-06 -5.19192385e-01   3.8987227909e-07   4.2165434095e-07   9.9999624361e-01
1.34896288e-06 -5.19192349e-01   3.9438686180e-07   4.2653666623e-07   9.9999620012e-01
1.36458314e-06 -5.19192313e-01   3.9895372265e-07   4.3147552145e-07   9.9999615611e-01
1.38038426e-06 -5.19192276e-01   4.0357346704e-07   4.3647156114e-07   9.9999611160e-01
1.39636836e-06 -5.19192238e-01   4.0824670737e-07   4.4152544728e-07   9.9999606658e-01
1.41253754e-06 -5.19192200e-01   4.1297406314e-07   4.4663784967e-07   9.9999602103e-01
1.42889396e-06 -5.19192162e-01   4.1775616098e-07   4.5180944570e-07   9.9999597496e-01
1.44543977e-06 -5.19192123e-01   4.2259363488e-07   4.5704092073e-07   9.9999592835e-01
1.46217717e-06 -5.19192084e-01   4.2748712608e-07   4.6233296799e-07   9.9999588120e-01
1.47910839e-06 -5.19192044e-01   4.3243728323e-07   4.6768628871e-07   9.9999583351e-01
1.49623566e-06 -5.19192004e-01   4.3744476262e-07   4.7310159233e-07   9.9999578526e-01
1.51356125e-06 -5.19191964e-01   4.4251022803e-07   4.7857959643e-07   9.9999573646e-01
1.53108746e-06 -5.19191922e-01   4.4763435095e-07   4.8412102692e-07   9.9999568709e-01
1.54881662e-06 -5.19191881e-01   4.5281781064e-07   4.8972661807e-07   9.9999563715e-01
1.56675107e-06 -5.19191839e-01   4.5806129427e-07   4.9539711272e-07   9.9999558663e-01
1.58489319e-06 -5.19191796e-01   4.6336549692e-07   5.0113326228e-07   9.9999553553e-01
1.60324539e-06 -5.19191753e-01   4.6873112170e-07   5.0693582681e-07   9.9999548383e-01
1.62181010e-06 -5.19191710e-01   4.7415887999e-07   5.1280557522e-07   9.9999543154e-01
1.64058977e-06 -5.19191666e-01   4.7964949121e-07   5.1874328531e-07   9.9999537864e-01
1.65958691e-06 -5.19191621e-01   4.8520368333e-07   5.2474974392e-07   9.9999532512e-01
1.67880402e-06 -5.19191576e-01   4.9082219251e-07   5.3082574688e-07   9.9999527099e-01
1.69824365e-06 -5.19191531e-01   4.9650576372e-07   5.3697209938e-07   9.9999521623e-01
1.71790839e-06 -5.19191485e-01   5.0225515032e-07   5.4318961585e-07   9.9999516084e-01
1.73780083e-06 -5.19191438e-01   5.0807111451e-07   5.4947912013e-07   9.9999510480e-01
1.75792361e-06 -5.19191391e-01   5.1395442721e-07   5.5584144561e-07   9.9999504812e-01
1.77827941e-06 -5.19191343e-01   5.1990586849e-07   5.6227743542e-07   9.9999499078e-01
1.79887092e-06 -5.19191295e-01   5.2592622714e-07   5.6878794224e-07   9.9999493278e-01
1.81970086e-06 -5.19191246e-01   5.3201630141e-07   5.7537382885e-07   9.9999487410e-01
1.84077200e-06 -5.19191197e-01   5.3817689855e-07   5.8203596788e-07   9.9999481475e-01
1.86208714e-06 -5.19191147e-01   5.4440883528e-07   5.8877524209e-07   9.9999475470e-01
1.88364909e-06 -5.19191096e-01   5.5071293774e-07   5.9559254445e-07   9.9999469397e-01
1.90546072e-06 -5.19191045e-01   5.5709004161e-07   6.0248877826e-07   9.9999463253e-01
1.92752491e-06 -5.19190993e-01   5.6354099239e-07   6.0946485736e-07   9.9999457037e-01
1.94984460e-06 -5.19190941e-01   5.7006664516e-07   6.1652170601e-07   9.9999450750e-01
1.97242274e-06 -5.19190888e-01   5.7666786507e-07   6.2366025932e-07   9.9999444390e-01
1.99526231e-06 -5.19190835e-01   5.8334552722e-07   6.3088146310e-07   9.9999437957e-01
2.01836636e-06 -5.19190781e-01   5.9010051681e-07   6.3818627418e-07   9.9999431449e-01
2.04173794e-06 -5.19190726e-01   5.9693372940e-07   6.4557566049e-07   9.9999424865e-01
2.06538016e-06 -5.19190670e-01   6.0384607086e-07   6.5305060111e-07   9.9999418205e-01
2.08929613e-06 -5.19190614e-01   6.1083845752e-07   6.6061208641e-07   9.9999411468e-01
2.11348904e-06 -5.19190558e-01   6.1791181634e-07   6.6826111831e-07   9.9999404654e-01
2.13796209e-06 -5.19190500e-01   6.2506708506e-07   6.7599871026e-07   9.9999397760e-01
2.16271852e-06 -5.19190442e-01   6.3230521226e-07   6.8382588752e-07   9.9999390786e-01
2.18776162e-06 -5.19190384e-01   6.3962715748e-07   6.9174368711e-07   9.9999383732e-01
2.21309471e-06 -5.19190324e-01   6.4703389136e-07   6.9975315814e-07   9.9999376596e-01
2.23872114e-06 -5.19190264e-01   6.5452639592e-07   7.0785536185e-07   9.9999369377e-01
2.26464431e-06 -5.19190203e-01   6.6210566431e-07   7.1605137167e-07   9.9999362075e-01
2.29086765e-06 -5.19190142e-01   6.6977270140e-07   7.2434227358e-07   9.9999354688e-01
2.31739465e-06 -5.19190080e-01   6.7752852359e-07   7.3272916602e-07   9.9999347216e-01
2.34422882e-06 -5.19190017e-01   6.8537415911e-07   7.4121316024e-07   9.9999339657e-01
2.37137371e-06 -5.19189953e-01   6.9331064804e-07   7.4979538029e-07   9.9999332011e-01
2.39883292e-06 -5.19189889e-01   7.0133904251e-07   7.5847696322e-07   9.9999324276e-01
2.42661010e-06 -5.19189824e-01   7.0946040691e-07   7.6725905927e-07   9.9999316451e-01
2.45470892e-06 -5.19189758e-01   7.1767581793e-07   7.7614283200e-07   9.9999308536e-01
2.48313311e-06 -5.19189691e-01   7.2598636465e-07   7.8512945839e-07   9.9999300530e-01
2.51188643e-06 -5.19189624e-01   7.3439314884e-07   7.9422012909e-07   9.9999292430e-01
2.54097271e-06 -5.19189556e-01   7.4289728500e-07   8.0341604847e-07   9.9999284237e-01
2.57039578e-06 -5.19189487e-01   7.5149990059e-07   8.1271843489e-07   9.9999275949e-01
2.60015956e-06 -5.19189417e-01   7.6020213605e-07   8.2212852082e-07   9.9999267565e-01
2.63026799e-06 -5.19189346e-01   7.6900514514e-07   8.3164755294e-07   9.9999259084e-01
2.66072506e-06 -5.19189275e-01   7.7791009485e-07   8.4127679239e-07   9.9999250504e-01
2.69153480e-06 -5.19189203e-01   7.8691816574e-07   8.5101751486e-07   9.9999241825e-01
2.72270131e-06 -5.19189130e-01   7.9603055208e-07   8.6087101086e-07   9.9999233046e-01
2.75422870e-06 -5.19189056e-01   8.0524846199e-07   8.7083858584e-07   9.9999224165e-01
2.78612117e-06 -5.19188981e-01   8.1457311747e-07   8.8092156028e-07   9.9999215182e-01
2.81838293e-06 -5.19188906e-01   8.2400575479e-07   8.9112126999e-07   9.9999206094e-01
2.85101827e-06 -5.19188829e-01   8.3354762447e-07   9.0143906629e-07   9.9999196901e-01
2.88403150e-06 -5.19188752e-01   8.4319999152e-07   9.1187631599e-07   9.9999187602e-01
2.91742701e-06 -5.19188674e-01   8.5296413567e-07   9.2243440187e-07   9.9999178195e-01
2.95120923e-06 -5.19188594e-01   8.6284135140e-07   9.3311472264e-07   9.9999168679e-01
2.98538262e-06 -5.19188514e-01   8.7283294819e-07   9.4391869319e-07   9.9999159052e-01
3.01995172e-06 -5.19188433e-01   8.8294025071e-07   9.5484774480e-07   9.9999149315e-01
3.05492111e-06 -5.19188351e-01   8.9316459896e-07   9.6590332526e-07   9.9999139464e-01
3.09029543e-06 -5.19188268e-01   9.0350734850e-07   9.7708689923e-07   9.9999129500e-01
3.12607937e-06 -5.19188185e-01   9.1396987054e-07   9.8839994821e-07   9.9999119420e-01
3.16227766e-06 -5.19188100e-01   9.2455355220e-07   9.9984397086e-07   9.9999109224e-01
3.19889511e-06 -5.19188014e-01   9.3525979665e-07   1.0114204832e-06   9.9999098909e-01
3.23593657e-06 -5.19187927e-01   9.4609002332e-07   1.0231310188e-06   9.9999088475e-01
3.27340695e-06 -5.19187839e-01   9.5704566807e-07   1.0349771290e-06   9.9999077920e-01
3.31131121e-06 -5.19187750e-01   9.6812818342e-07   1.0469603829e-06   9.9999067243e-01
3.34965439e-06 -5.19187661e-01   9.7933903873e-07   1.0590823681e-06   9.9999056442e-01
3.38844156e-06 -5.19187570e-01   9.9067972031e-07   1.0713446903e-06   9.9999045516e-01
3.42767787e-06 -5.19187478e-01   1.0021517317e-06   1.0837489738e-06   9.9999034464e-01
3.46736850e-06 -5.19187385e-01   1.0137565940e-06   1.0962968618e-06   9.9999023284e-01
3.50751874e-06 -5.19187291e-01   1.0254958457e-06   1.1089900164e-06   9.9999011974e-01
3.54813389e-06 -5.19187195e-01   1.0373710433e-06   1.1218301190e-06   9.9999000533e-01
3.58921935e-06 -5.19187099e-01   1.0493837611e-06   1.1348188704e-06   9.9998988960e-01
3.63078055e-06 -5.19187002e-01   1.0615355920e-06   1.1479579913e-06   9.9998977253e-01
3.67282300e-06 -5.19186903e-01   1.0738281470e-06   1.1612492219e-06   9.9998965410e-01
3.71535229e-06 -5.19186804e-01   1.0862630559e-06   1.1746943229e-06   9.9998953430e-01
3.75837404e-06 -5.19186703e-01   1.0988419675e-06   1.1882950751e-06   9.9998941311e-01
3.80189396e-06 -5.19186601e-01   1.1115665494e-06   1.2020532801e-06   9.9998929053e-01
3.84591782e-06 -5.19186498e-01   1.1244384889e-06   1.2159707603e-06   9.9998916652e-01
3.89045145e-06 -5.19186393e-01   1.1374594925e-06   1.2300493591e-06   9.9998904107e-01
3.93550075e-06 -5.19186288e-01   1.1506312866e-06   1.2442909413e-06   9.9998891417e-01
3.98107171e-06 -5.19186181e-01   1.1639556177e-06   1.2586973932e-06   9.9998878581e-01
4.02717034e-06 -5.19186073e-01   1.1774342524e-06   1.2732706230e-06   9.9998865595e-01
4.07380278e-06 -5.19185964e-01   1.1910689777e-06   1.2880125610e-06   9.9998852460e-01
4.12097519e-06 -5.19185853e-01   1.2048616016e-06   1.3029251597e-06   9.9998839172e-01
4.16869383e-06 -5.19185741e-01   1.2188139527e-06   1.3180103942e-06   9.9998825730e-01
4.21696503e-06 -5.19185628e-01   1.2329278810e-06   1.3332702627e-06   9.9998812133e-01
4.26579519e-06 -5.19185514e-01   1.2472052578e-06   1.3487067861e-06   9.9998798378e-01
4.31519077e-06 -5.19185398e-01   1.2616479763e-06   1.3643220091e-06   9.9998784464e-01
4.36515832e-06 -5.19185281e-01   1.2762579512e-06   1.3801179997e-06   9.9998770389e-01
4.41570447e-06 -5.19185162e-01   1.2910371199e-06   1.3960968500e-06   9.9998756151e-01
4.46683592e-06 -5.19185043e-01   1.3059874419e-06   1.4122606763e-06   9.9998741748e-01
4.51855944e-06 -5.19184921e-01   1.3211108994e-06   1.4286116193e-06   9.9998727179e-01
4.57088190e-06 -5.19184799e-01   1.3364094978e-06   1.4451518446e-06   9.9998712440e-01
4.62381021e-06 -5.19184675e-01   1.3518852655e-06   1.4618835427e-06   9.9998697531e-01
4.67735141e-06 -5.19184549e-01   1.3675402546e-06   1.4788089295e-06   9.9998682449e-01
4.73151259e-06 -5.19184422e-01   1.3833765407e-06   1.4959302465e-06   9.9998667193e-01
4.78630092e-06 -5.19184294e-01   1.3993962238e-06   1.5132497612e-06   9.9998651760e-01
4.84172368e-06 -5.19184164e-01   1.4156014278e-06   1.5307697672e-06   9.9998636148e-01
4.89778819e-06 -5.19184033e-01   1.4319943017e-06   1.5484925848e-06   9.9998620356e-01
4.95450191e-06 -5.19183900e-01   1.4485770189e-06   1.5664205609e-06   9.9998604380e-01
5.01187234e-06 -5.19183765e-01   1.4653517784e-06   1.5845560698e-06   9.9998588220e-01
5.06990708e-06 -5.19183629e-01   1.4823208043e-06   1.6029015131e-06   9.9998571872e-01
5.12861384e-06 -5.19183492e-01   1.4994863468e-06   1.6214593202e-06   9.9998555336e-01
5.18800039e-06 -5.19183352e-01   1.5168506820e-06   1.6402319487e-06   9.9998538607e-01
5.24807460e-06 -5.19183212e-01   1.5344161123e-06   1.6592218844e-06   9.9998521686e-01
5.30884444e-06 -5.19183069e-01   1.5521849671e-06   1.6784316420e-06   9.9998504568e-01
5.37031796e-06 -5.19182925e-01   1.5701596023e-06   1.6978637653e-06   9.9998487252e-01
5.43250331e-06 -5.19182780e-01   1.5883424015e-06   1.7175208275e-06   9.9998469735e-01
5.49540874e-06 -5.19182632e-01   1.6067357757e-06   1.7374054315e-06   9.9998452016e-01
5.55904257e-06 -5.19182483e-01   1.6253421640e-06   1.7575202104e-06   9.9998434091e-01
5.62341325e-06 -5.19182332e-01   1.6441640335e-06   1.7778678276e-06   9.9998415959e-01
5.68852931e-06 -5.19182180e-01   1.6632038801e-06   1.7984509773e-06   9.9998397617e-01
5.75439937e-06 -5.19182025e-01   1.6824642286e-06   1.8192723852e-06   9.9998379062e-01
5.82103218e-06 -5.19181869e-01   1.7019476330e-06   1.8403348080e-06   9.9998360293e-01
5.88843655e-06 -5.19181711e-01   1.7216566769e-06   1.8616410347e-06   9.9998341306e-01
5.95662144e-06 -5.19181551e-01   1.7415939738e-06   1.8831938862e-06   9.9998322100e-01
6.02559586e-06 -5.19181390e-01   1.7617621676e-06   1.9049962163e-06   9.9998302671e-01
6.09536897e-06 -5.19181226e-01   1.7821639326e-06   1.9270509118e-06   9.9998283017e-01
6.16595002e-06 -5.19181061e-01   1.8028019744e-06   1.9493608926e-06   9.9998263135e-01
6.23734835e-06 -5.19180893e-01   1.8236790296e-06   1.9719291125e-06   9.9998243024e-01
6.30957344e-06 -5.19180724e-01   1.8447978669e-06   1.9947585597e-06   9.9998222679e-01
6.38263486e-06 -5.19180553e-01   1.8661612866e-06   2.0178522565e-06   9.9998202099e-01
6.45654229e-06 -5.19180380e-01   1.8877721220e-06   2.0412132605e-06   9.9998181281e-01
6.53130553e-06 -5.19180205e-01   1.9096332388e-06   2.0648446645e-06   9.9998160221e-01
6.60693448e-06 -5.19180027e-01   1.9317475360e-06   2.0887495970e-06   9.9998138918e-01
6.68343918e-06 -5.19179848e-01   1.9541179464e-06   2.1129312229e-06   9.9998117368e-01
6.76082975e-06 -5.19179667e-01   1.9767474364e-06   2.1373927433e-06   9.9998095568e-01
6.83911647e-06 -5.19179483e-01   1.9996390072e-06   2.1621373968e-06   9.9998073516e-01
6.91830971e-06 -5.19179298e-01   2.0227956944e-06   2.1871684590e-06   9.9998051209e-01
6.99841996e-06 -5.19179110e-01   2.0462205691e-06   2.2124892437e-06   9.9998028643e-01
7.07945784e-06 -5.19178920e-01   2.0699167377e-06   2.2381031026e-06   9.9998005816e-01
7.16143410e-06 -5.19178728e-01   2.0938873427e-06   2.2640134266e-06   9.9997982725e-01
7.24435960e-06 -5.19178534e-01   2.1181355632e-06   2.2902236456e-06   9.9997959367e-01
7.32824533e-06 -5.19178337e-01   2.1426646149e-06   2.3167372290e-06   9.9997935737e-01
7.41310241e-06 -5.19178138e-01   2.1674777507e-06   2.3435576864e-06   9.9997911835e-01
7.49894209e-06 -5.19177937e-01   2.1925782616e-06   2.3706885682e-06   9.9997887655e-01
7.58577575e-06 -5.19177733e-01   2.2179694762e-06   2.3981334656e-06   9.9997863196e-01
7.67361489e-06 -5.19177528e-01   2.2436547621e-06   2.4258960112e-06   9.9997838453e-01
7.76247117e-06 -5.19177319e-01   2.2696375257e-06   2.4539798798e-06   9.9997813424e-01
7.85235635e-06 -5.19177109e-01   2.2959212129e-06   2.4823887887e-06   9.9997788105e-01
7.94328235e-06 -5.19176896e-01   2.3225093097e-06   2.5111264979e-06   9.9997762493e-01
8.03526122e-06 -5.19176680e-01   2.3494053422e-06   2.5401968112e-06   9.9997736585e-01
8.12830516e-06 -5.19176462e-01   2.3766128776e-06   2.5696035761e-06   9.9997710376e-01
8.22242650e-06 -5.19176242e-01   2.4041355245e-06   2.5993506845e-06   9.9997683864e-01
8.31763771e-06 -5.19176018e-01   2.4319769330e-06   2.6294420736e-06   9.9997657045e-01
8.41395142e-06 -5.19175793e-01   2.4601407957e-06   2.6598817259e-06   9.9997629915e-01
8.51138038e-06 -5.19175564e-01   2.4886308481e-06   2.6906736699e-06   9.9997602471e-01
8.60993752e-06 -5.19175333e-01   2.5174508687e-06   2.7218219806e-06   9.9997574710e-01
8.70963590e-06 -5.19175100e-01   2.5466046801e-06   2.7533307803e-06   9.9997546627e-01
8.81048873e-06 -5.19174864e-01   2.5760961490e-06   2.7852042388e-06   9.9997518218e-01
8.91250938e-06 -5.19174624e-01   2.6059291871e-06   2.8174465740e-06   9.9997489481e-01
9.01571138e-06 -5.19174383e-01   2.6361077510e-06   2.8500620527e-06   9.9997460411e-01
9.12010839e-06 -5.19174138e-01   2.6666358438e-06   2.8830549909e-06   9.9997431005e-01
9.22571427e-06 -5.19173890e-01   2.6975175145e-06   2.9164297545e-06   9.9997401258e-01
9.33254301e-06 -5.19173640e-01   2.7287568592e-06   2.9501907598e-06   9.9997371166e-01
9.44060876e-06 -5.19173387e-01   2.7603580214e-06   2.9843424741e-06   9.9997340727e-01
9.54992586e-06 -5.19173131e-01   2.7923251928e-06   3.0188894164e-06   9.9997309934e-01
9.66050879e-06 -5.19172872e-01   2.8246626135e-06   3.0538361579e-06   9.9997278785e-01
9.77237221e-06 -5.19172609e-01   2.8573745728e-06   3.0891873226e-06   9.9997247276e-01
9.88553095e-06 -5.19172344e-01   2.8904654097e-06   3.1249475878e-06   9.9997215402e-01
1.00000000e-05 -5.19172076e-01   2.9239395136e-06   3.1611216849e-06   9.9997183158e-01
1.01157945e-05 -5.19171805e-01   2.9578013246e-06   3.1977144001e-06   9.9997150541e-01
1.02329299e-05 -5.19171530e-01   2.9920553344e-06   3.2347305747e-06   9.9997117547e-01
1.03514217e-05 -5.19171253e-01   3.0267060868e-06   3.2721751059e-06   9.9997084170e-01
1.04712855e-05 -5.19170972e-01   3.0617581780e-06   3.3100529475e-06   9.9997050407e-01
1.05925373e-05 -5.19170688e-01   3.0972162577e-06   3.3483691107e-06   9.9997016253e-01
1.07151931e-05 -5.19170400e-01   3.1330850297e-06   3.3871286645e-06   9.9996981704e-01
1.08392691e-05 -5.19170109e-01   3.1693692518e-06   3.4263367361e-06   9.9996946755e-01
1.09647820e-05 -5.19169815e-01   3.2060737373e-06   3.4659985124e-06   9.9996911401e-01
1.10917482e-05 -5.19169518e-01   3.2432033553e-06   3.5061192399e-06   9.9996875637e-01
1.12201845e-05 -5.19169217e-01   3.2807630313e-06   3.5467042258e-06   9.9996839460e-01
1.13501082e-05 -5.19168912e-01   3.3187577477e-06   3.5877588385e-06   9.9996802863e-01
1.14815362e-05 -5.19168604e-01   3.3571925449e-06   3.6292885086e-06   9.9996765843e-01
1.16144861e-05 -5.19168293e-01   3.3960725218e-06   3.6712987291e-06   9.9996728394e-01
1.17489755e-05 -5.19167978e-01   3.4354028360e-06   3.7137950566e-06   9.9996690512e-01
1.18850223e-05 -5.19167659e-01   3.4751887054e-06   3.7567831120e-06   9.9996652190e-01
1.20226443e-05 -5.19167336e-01   3.5154354080e-06   3.8002685808e-06   9.9996613426e-01
1.21618600e-05 -5.19167010e-01   3.5561482831e-06   3.8442572142e-06   9.9996574212e-01
1.23026877e-05 -5.19166680e-01   3.5973327320e-06   3.8887548301e-06   9.9996534544e-01
1.24451461e-05 -5.19166346e-01   3.6389942186e-06   3.9337673132e-06   9.9996494417e-01
1.25892541e-05 -5.19166009e-01   3.6811382699e-06   3.9793006163e-06   9.9996453826e-01
1.27350308e-05 -5.19165667e-01   3.7237704774e-06   4.0253607610e-06   9.9996412764e-01
1.28824955e-05 -5.19165321e-01   3.7668964971e-06   4.0719538381e-06   9.9996371227e-01
1.30316678e-05 -5.19164972e-01   3.8105220507e-06   4.1190860091e-06   9.9996329209e-01
1.31825674e-05 -5.19164618e-01   3.8546529261e-06   4.1667635064e-06   9.9996286704e-01
1.33352143e-05 -5.19164261e-01   3.8992949785e-06   4.2149926343e-06   9.9996243707e-01
