##          Q2              z             GE(M)n            dGE(M)n               GDip
1.00000000e-06 -5.19193167e-01  -1.9130366074e+00   1.0663546632e-09   9.9999718310e-01
1.01157945e-06 -5.19193140e-01  -1.9130365366e+00   1.0787024316e-09   9.9999715049e-01
1.02329299e-06 -5.19193112e-01  -1.9130364650e+00   1.0911931827e-09   9.9999711749e-01
1.03514217e-06 -5.19193085e-01  -1.9130363926e+00   1.1038285746e-09   9.9999708411e-01
1.04712855e-06 -5.19193057e-01  -1.9130363193e+00   1.1166102825e-09   9.9999705035e-01
1.05925373e-06 -5.19193028e-01  -1.9130362452e+00   1.1295399977e-09   9.9999701619e-01
1.07151931e-06 -5.19192999e-01  -1.9130361702e+00   1.1426194389e-09   9.9999698164e-01
1.08392691e-06 -5.19192970e-01  -1.9130360944e+00   1.1558503368e-09   9.9999694669e-01
1.09647820e-06 -5.19192941e-01  -1.9130360176e+00   1.1692344463e-09   9.9999691134e-01
1.10917482e-06 -5.19192911e-01  -1.9130359400e+00   1.1827735433e-09   9.9999687557e-01
1.12201845e-06 -5.19192881e-01  -1.9130358615e+00   1.1964694207e-09   9.9999683939e-01
1.13501082e-06 -5.19192851e-01  -1.9130357821e+00   1.2103238950e-09   9.9999680279e-01
1.14815362e-06 -5.19192820e-01  -1.9130357018e+00   1.2243388036e-09   9.9999676577e-01
1.16144861e-06 -5.19192789e-01  -1.9130356205e+00   1.2385160052e-09   9.9999672832e-01
1.17489755e-06 -5.19192757e-01  -1.9130355383e+00   1.2528573784e-09   9.9999669044e-01
1.18850223e-06 -5.19192725e-01  -1.9130354551e+00   1.2673648242e-09   9.9999665211e-01
1.20226443e-06 -5.19192693e-01  -1.9130353710e+00   1.2820402660e-09   9.9999661335e-01
1.21618600e-06 -5.19192660e-01  -1.9130352859e+00   1.2968856506e-09   9.9999657413e-01
1.23026877e-06 -5.19192627e-01  -1.9130351998e+00   1.3119029462e-09   9.9999653446e-01
1.24451461e-06 -5.19192594e-01  -1.9130351128e+00   1.3270941437e-09   9.9999649433e-01
1.25892541e-06 -5.19192560e-01  -1.9130350247e+00   1.3424612573e-09   9.9999645374e-01
1.27350308e-06 -5.19192526e-01  -1.9130349356e+00   1.3580063237e-09   9.9999641268e-01
1.28824955e-06 -5.19192492e-01  -1.9130348454e+00   1.3737314065e-09   9.9999637114e-01
1.30316678e-06 -5.19192457e-01  -1.9130347542e+00   1.3896385880e-09   9.9999632912e-01
1.31825674e-06 -5.19192421e-01  -1.9130346620e+00   1.4057299783e-09   9.9999628661e-01
1.33352143e-06 -5.19192385e-01  -1.9130345687e+00   1.4220077137e-09   9.9999624361e-01
1.34896288e-06 -5.19192349e-01  -1.9130344743e+00   1.4384739474e-09   9.9999620012e-01
1.36458314e-06 -5.19192313e-01  -1.9130343788e+00   1.4551308652e-09   9.9999615611e-01
1.38038426e-06 -5.19192276e-01  -1.9130342822e+00   1.4719806784e-09   9.9999611160e-01
1.39636836e-06 -5.19192238e-01  -1.9130341845e+00   1.4890256182e-09   9.9999606658e-01
1.41253754e-06 -5.19192200e-01  -1.9130340857e+00   1.5062679469e-09   9.9999602103e-01
1.42889396e-06 -5.19192162e-01  -1.9130339857e+00   1.5237099494e-09   9.9999597496e-01
1.44543977e-06 -5.19192123e-01  -1.9130338846e+00   1.5413539379e-09   9.9999592835e-01
1.46217717e-06 -5.19192084e-01  -1.9130337823e+00   1.5592022551e-09   9.9999588120e-01
1.47910839e-06 -5.19192044e-01  -1.9130336788e+00   1.5772572661e-09   9.9999583351e-01
1.49623566e-06 -5.19192004e-01  -1.9130335741e+00   1.5955213652e-09   9.9999578526e-01
1.51356125e-06 -5.19191964e-01  -1.9130334682e+00   1.6139969749e-09   9.9999573646e-01
1.53108746e-06 -5.19191922e-01  -1.9130333610e+00   1.6326865441e-09   9.9999568709e-01
1.54881662e-06 -5.19191881e-01  -1.9130332527e+00   1.6515925535e-09   9.9999563715e-01
1.56675107e-06 -5.19191839e-01  -1.9130331430e+00   1.6707175098e-09   9.9999558663e-01
1.58489319e-06 -5.19191796e-01  -1.9130330321e+00   1.6900639507e-09   9.9999553553e-01
1.60324539e-06 -5.19191753e-01  -1.9130329200e+00   1.7096344396e-09   9.9999548383e-01
1.62181010e-06 -5.19191710e-01  -1.9130328065e+00   1.7294315713e-09   9.9999543154e-01
1.64058977e-06 -5.19191666e-01  -1.9130326917e+00   1.7494579779e-09   9.9999537864e-01
1.65958691e-06 -5.19191621e-01  -1.9130325756e+00   1.7697163071e-09   9.9999532512e-01
1.67880402e-06 -5.19191576e-01  -1.9130324581e+00   1.7902092488e-09   9.9999527099e-01
1.69824365e-06 -5.19191531e-01  -1.9130323393e+00   1.8109395265e-09   9.9999521623e-01
1.71790839e-06 -5.19191485e-01  -1.9130322191e+00   1.8319098811e-09   9.9999516084e-01
1.73780083e-06 -5.19191438e-01  -1.9130320975e+00   1.8531231022e-09   9.9999510480e-01
1.75792361e-06 -5.19191391e-01  -1.9130319745e+00   1.8745820005e-09   9.9999504812e-01
1.77827941e-06 -5.19191343e-01  -1.9130318501e+00   1.8962894210e-09   9.9999499078e-01
1.79887092e-06 -5.19191295e-01  -1.9130317242e+00   1.9182482444e-09   9.9999493278e-01
1.81970086e-06 -5.19191246e-01  -1.9130315969e+00   1.9404613843e-09   9.9999487410e-01
1.84077200e-06 -5.19191197e-01  -1.9130314681e+00   1.9629317873e-09   9.9999481475e-01
1.86208714e-06 -5.19191147e-01  -1.9130313378e+00   1.9856624315e-09   9.9999475470e-01
1.88364909e-06 -5.19191096e-01  -1.9130312060e+00   2.0086563387e-09   9.9999469397e-01
1.90546072e-06 -5.19191045e-01  -1.9130310726e+00   2.0319165533e-09   9.9999463253e-01
1.92752491e-06 -5.19190993e-01  -1.9130309378e+00   2.0554461656e-09   9.9999457037e-01
1.94984460e-06 -5.19190941e-01  -1.9130308013e+00   2.0792482963e-09   9.9999450750e-01
1.97242274e-06 -5.19190888e-01  -1.9130306633e+00   2.1033261018e-09   9.9999444390e-01
1.99526231e-06 -5.19190835e-01  -1.9130305237e+00   2.1276827751e-09   9.9999437957e-01
2.01836636e-06 -5.19190781e-01  -1.9130303825e+00   2.1523215541e-09   9.9999431449e-01
2.04173794e-06 -5.19190726e-01  -1.9130302396e+00   2.1772457035e-09   9.9999424865e-01
2.06538016e-06 -5.19190670e-01  -1.9130300951e+00   2.2024585361e-09   9.9999418205e-01
2.08929613e-06 -5.19190614e-01  -1.9130299489e+00   2.2279633865e-09   9.9999411468e-01
2.11348904e-06 -5.19190558e-01  -1.9130298010e+00   2.2537636511e-09   9.9999404654e-01
2.13796209e-06 -5.19190500e-01  -1.9130296514e+00   2.2798627487e-09   9.9999397760e-01
2.16271852e-06 -5.19190442e-01  -1.9130295001e+00   2.3062641425e-09   9.9999390786e-01
2.18776162e-06 -5.19190384e-01  -1.9130293470e+00   2.3329713352e-09   9.9999383732e-01
2.21309471e-06 -5.19190324e-01  -1.9130291922e+00   2.3599878740e-09   9.9999376596e-01
2.23872114e-06 -5.19190264e-01  -1.9130290355e+00   2.3873173449e-09   9.9999369377e-01
2.26464431e-06 -5.19190203e-01  -1.9130288771e+00   2.4149633738e-09   9.9999362075e-01
2.29086765e-06 -5.19190142e-01  -1.9130287168e+00   2.4429296306e-09   9.9999354688e-01
2.31739465e-06 -5.19190080e-01  -1.9130285546e+00   2.4712198272e-09   9.9999347216e-01
2.34422882e-06 -5.19190017e-01  -1.9130283906e+00   2.4998377207e-09   9.9999339657e-01
2.37137371e-06 -5.19189953e-01  -1.9130282247e+00   2.5287871110e-09   9.9999332011e-01
2.39883292e-06 -5.19189889e-01  -1.9130280568e+00   2.5580718362e-09   9.9999324276e-01
2.42661010e-06 -5.19189824e-01  -1.9130278871e+00   2.5876957878e-09   9.9999316451e-01
2.45470892e-06 -5.19189758e-01  -1.9130277153e+00   2.6176628985e-09   9.9999308536e-01
2.48313311e-06 -5.19189691e-01  -1.9130275416e+00   2.6479771484e-09   9.9999300530e-01
2.51188643e-06 -5.19189624e-01  -1.9130273658e+00   2.6786425597e-09   9.9999292430e-01
2.54097271e-06 -5.19189556e-01  -1.9130271880e+00   2.7096632072e-09   9.9999284237e-01
2.57039578e-06 -5.19189487e-01  -1.9130270082e+00   2.7410432076e-09   9.9999275949e-01
2.60015956e-06 -5.19189417e-01  -1.9130268262e+00   2.7727867296e-09   9.9999267565e-01
2.63026799e-06 -5.19189346e-01  -1.9130266422e+00   2.8048979884e-09   9.9999259084e-01
2.66072506e-06 -5.19189275e-01  -1.9130264560e+00   2.8373812498e-09   9.9999250504e-01
2.69153480e-06 -5.19189203e-01  -1.9130262677e+00   2.8702408259e-09   9.9999241825e-01
2.72270131e-06 -5.19189130e-01  -1.9130260772e+00   2.9034810831e-09   9.9999233046e-01
2.75422870e-06 -5.19189056e-01  -1.9130258845e+00   2.9371064386e-09   9.9999224165e-01
2.78612117e-06 -5.19188981e-01  -1.9130256895e+00   2.9711213555e-09   9.9999215182e-01
2.81838293e-06 -5.19188906e-01  -1.9130254923e+00   3.0055303532e-09   9.9999206094e-01
2.85101827e-06 -5.19188829e-01  -1.9130252928e+00   3.0403380020e-09   9.9999196901e-01
2.88403150e-06 -5.19188752e-01  -1.9130250910e+00   3.0755489349e-09   9.9999187602e-01
2.91742701e-06 -5.19188674e-01  -1.9130248869e+00   3.1111678214e-09   9.9999178195e-01
2.95120923e-06 -5.19188594e-01  -1.9130246804e+00   3.1471993934e-09   9.9999168679e-01
2.98538262e-06 -5.19188514e-01  -1.9130244715e+00   3.1836484431e-09   9.9999159052e-01
3.01995172e-06 -5.19188433e-01  -1.9130242602e+00   3.2205198192e-09   9.9999149315e-01
3.05492111e-06 -5.19188351e-01  -1.9130240464e+00   3.2578184153e-09   9.9999139464e-01
3.09029543e-06 -5.19188268e-01  -1.9130238302e+00   3.2955491902e-09   9.9999129500e-01
3.12607937e-06 -5.19188185e-01  -1.9130236115e+00   3.3337171603e-09   9.9999119420e-01
3.16227766e-06 -5.19188100e-01  -1.9130233902e+00   3.3723273976e-09   9.9999109224e-01
3.19889511e-06 -5.19188014e-01  -1.9130231664e+00   3.4113850422e-09   9.9999098909e-01
3.23593657e-06 -5.19187927e-01  -1.9130229400e+00   3.4508952751e-09   9.9999088475e-01
3.27340695e-06 -5.19187839e-01  -1.9130227109e+00   3.4908633592e-09   9.9999077920e-01
3.31131121e-06 -5.19187750e-01  -1.9130224792e+00   3.5312946072e-09   9.9999067243e-01
3.34965439e-06 -5.19187661e-01  -1.9130222448e+00   3.5721943900e-09   9.9999056442e-01
3.38844156e-06 -5.19187570e-01  -1.9130220078e+00   3.6135681545e-09   9.9999045516e-01
3.42767787e-06 -5.19187478e-01  -1.9130217679e+00   3.6554214047e-09   9.9999034464e-01
3.46736850e-06 -5.19187385e-01  -1.9130215253e+00   3.6977597056e-09   9.9999023284e-01
3.50751874e-06 -5.19187291e-01  -1.9130212799e+00   3.7405886838e-09   9.9999011974e-01
3.54813389e-06 -5.19187195e-01  -1.9130210316e+00   3.7839140481e-09   9.9999000533e-01
3.58921935e-06 -5.19187099e-01  -1.9130207805e+00   3.8277415517e-09   9.9998988960e-01
3.63078055e-06 -5.19187002e-01  -1.9130205264e+00   3.8720770403e-09   9.9998977253e-01
3.67282300e-06 -5.19186903e-01  -1.9130202694e+00   3.9169263996e-09   9.9998965410e-01
3.71535229e-06 -5.19186804e-01  -1.9130200095e+00   3.9622956143e-09   9.9998953430e-01
3.75837404e-06 -5.19186703e-01  -1.9130197465e+00   4.0081907094e-09   9.9998941311e-01
3.80189396e-06 -5.19186601e-01  -1.9130194805e+00   4.0546178047e-09   9.9998929053e-01
3.84591782e-06 -5.19186498e-01  -1.9130192114e+00   4.1015830785e-09   9.9998916652e-01
3.89045145e-06 -5.19186393e-01  -1.9130189392e+00   4.1490927815e-09   9.9998904107e-01
3.93550075e-06 -5.19186288e-01  -1.9130186638e+00   4.1971532461e-09   9.9998891417e-01
3.98107171e-06 -5.19186181e-01  -1.9130183852e+00   4.2457708657e-09   9.9998878581e-01
4.02717034e-06 -5.19186073e-01  -1.9130181035e+00   4.2949521256e-09   9.9998865595e-01
4.07380278e-06 -5.19185964e-01  -1.9130178184e+00   4.3447035713e-09   9.9998852460e-01
4.12097519e-06 -5.19185853e-01  -1.9130175301e+00   4.3950318338e-09   9.9998839172e-01
4.16869383e-06 -5.19185741e-01  -1.9130172384e+00   4.4459436236e-09   9.9998825730e-01
4.21696503e-06 -5.19185628e-01  -1.9130169433e+00   4.4974457143e-09   9.9998812133e-01
4.26579519e-06 -5.19185514e-01  -1.9130166448e+00   4.5495449818e-09   9.9998798378e-01
4.31519077e-06 -5.19185398e-01  -1.9130163429e+00   4.6022483700e-09   9.9998784464e-01
4.36515832e-06 -5.19185281e-01  -1.9130160375e+00   4.6555628980e-09   9.9998770389e-01
4.41570447e-06 -5.19185162e-01  -1.9130157285e+00   4.7094956833e-09   9.9998756151e-01
4.46683592e-06 -5.19185043e-01  -1.9130154160e+00   4.7640539131e-09   9.9998741748e-01
4.51855944e-06 -5.19184921e-01  -1.9130150998e+00   4.8192448740e-09   9.9998727179e-01
4.57088190e-06 -5.19184799e-01  -1.9130147800e+00   4.8750759123e-09   9.9998712440e-01
4.62381021e-06 -5.19184675e-01  -1.9130144564e+00   4.9315544960e-09   9.9998697531e-01
4.67735141e-06 -5.19184549e-01  -1.9130141292e+00   4.9886881531e-09   9.9998682449e-01
4.73151259e-06 -5.19184422e-01  -1.9130137981e+00   5.0464845061e-09   9.9998667193e-01
4.78630092e-06 -5.19184294e-01  -1.9130134632e+00   5.1049512815e-09   9.9998651760e-01
4.84172368e-06 -5.19184164e-01  -1.9130131244e+00   5.1640962697e-09   9.9998636148e-01
4.89778819e-06 -5.19184033e-01  -1.9130127817e+00   5.2239273842e-09   9.9998620356e-01
4.95450191e-06 -5.19183900e-01  -1.9130124351e+00   5.2844526176e-09   9.9998604380e-01
5.01187234e-06 -5.19183765e-01  -1.9130120844e+00   5.3456800392e-09   9.9998588220e-01
5.06990708e-06 -5.19183629e-01  -1.9130117296e+00   5.4076178451e-09   9.9998571872e-01
5.12861384e-06 -5.19183492e-01  -1.9130113708e+00   5.4702743085e-09   9.9998555336e-01
5.18800039e-06 -5.19183352e-01  -1.9130110078e+00   5.5336578022e-09   9.9998538607e-01
5.24807460e-06 -5.19183212e-01  -1.9130106406e+00   5.5977768056e-09   9.9998521686e-01
5.30884444e-06 -5.19183069e-01  -1.9130102691e+00   5.6626398975e-09   9.9998504568e-01
5.37031796e-06 -5.19182925e-01  -1.9130098933e+00   5.7282557375e-09   9.9998487252e-01
5.43250331e-06 -5.19182780e-01  -1.9130095132e+00   5.7946331213e-09   9.9998469735e-01
5.49540874e-06 -5.19182632e-01  -1.9130091287e+00   5.8617809183e-09   9.9998452016e-01
5.55904257e-06 -5.19182483e-01  -1.9130087398e+00   5.9297081225e-09   9.9998434091e-01
5.62341325e-06 -5.19182332e-01  -1.9130083463e+00   5.9984238298e-09   9.9998415959e-01
5.68852931e-06 -5.19182180e-01  -1.9130079483e+00   6.0679372436e-09   9.9998397617e-01
5.75439937e-06 -5.19182025e-01  -1.9130075456e+00   6.1382576746e-09   9.9998379062e-01
5.82103218e-06 -5.19181869e-01  -1.9130071383e+00   6.2093945386e-09   9.9998360293e-01
5.88843655e-06 -5.19181711e-01  -1.9130067263e+00   6.2813573753e-09   9.9998341306e-01
5.95662144e-06 -5.19181551e-01  -1.9130063095e+00   6.3541558250e-09   9.9998322100e-01
6.02559586e-06 -5.19181390e-01  -1.9130058879e+00   6.4277996530e-09   9.9998302671e-01
6.09536897e-06 -5.19181226e-01  -1.9130054614e+00   6.5022987507e-09   9.9998283017e-01
6.16595002e-06 -5.19181061e-01  -1.9130050300e+00   6.5776630907e-09   9.9998263135e-01
6.23734835e-06 -5.19180893e-01  -1.9130045936e+00   6.6539027889e-09   9.9998243024e-01
6.30957344e-06 -5.19180724e-01  -1.9130041521e+00   6.7310281024e-09   9.9998222679e-01
6.38263486e-06 -5.19180553e-01  -1.9130037055e+00   6.8090493696e-09   9.9998202099e-01
6.45654229e-06 -5.19180380e-01  -1.9130032537e+00   6.8879770750e-09   9.9998181281e-01
6.53130553e-06 -5.19180205e-01  -1.9130027967e+00   6.9678218293e-09   9.9998160221e-01
6.60693448e-06 -5.19180027e-01  -1.9130023344e+00   7.0485943677e-09   9.9998138918e-01
6.68343918e-06 -5.19179848e-01  -1.9130018668e+00   7.1303055321e-09   9.9998117368e-01
6.76082975e-06 -5.19179667e-01  -1.9130013937e+00   7.2129663277e-09   9.9998095568e-01
6.83911647e-06 -5.19179483e-01  -1.9130009152e+00   7.2965878772e-09   9.9998073516e-01
6.91830971e-06 -5.19179298e-01  -1.9130004311e+00   7.3811814493e-09   9.9998051209e-01
6.99841996e-06 -5.19179110e-01  -1.9129999414e+00   7.4667584080e-09   9.9998028643e-01
7.07945784e-06 -5.19178920e-01  -1.9129994461e+00   7.5533302937e-09   9.9998005816e-01
7.16143410e-06 -5.19178728e-01  -1.9129989450e+00   7.6409087811e-09   9.9997982725e-01
7.24435960e-06 -5.19178534e-01  -1.9129984381e+00   7.7295056665e-09   9.9997959367e-01
7.32824533e-06 -5.19178337e-01  -1.9129979254e+00   7.8191328992e-09   9.9997935737e-01
7.41310241e-06 -5.19178138e-01  -1.9129974067e+00   7.9098025701e-09   9.9997911835e-01
7.49894209e-06 -5.19177937e-01  -1.9129968820e+00   8.0015269370e-09   9.9997887655e-01
7.58577575e-06 -5.19177733e-01  -1.9129963512e+00   8.0943183652e-09   9.9997863196e-01
7.67361489e-06 -5.19177528e-01  -1.9129958143e+00   8.1881893900e-09   9.9997838453e-01
7.76247117e-06 -5.19177319e-01  -1.9129952711e+00   8.2831527197e-09   9.9997813424e-01
7.85235635e-06 -5.19177109e-01  -1.9129947217e+00   8.3792211815e-09   9.9997788105e-01
7.94328235e-06 -5.19176896e-01  -1.9129941659e+00   8.4764077687e-09   9.9997762493e-01
8.03526122e-06 -5.19176680e-01  -1.9129936037e+00   8.5747256483e-09   9.9997736585e-01
8.12830516e-06 -5.19176462e-01  -1.9129930349e+00   8.6741881275e-09   9.9997710376e-01
8.22242650e-06 -5.19176242e-01  -1.9129924596e+00   8.7748086740e-09   9.9997683864e-01
8.31763771e-06 -5.19176018e-01  -1.9129918776e+00   8.8766009506e-09   9.9997657045e-01
8.41395142e-06 -5.19175793e-01  -1.9129912889e+00   8.9795787454e-09   9.9997629915e-01
8.51138038e-06 -5.19175564e-01  -1.9129906934e+00   9.0837560387e-09   9.9997602471e-01
8.60993752e-06 -5.19175333e-01  -1.9129900909e+00   9.1891469898e-09   9.9997574710e-01
8.70963590e-06 -5.19175100e-01  -1.9129894815e+00   9.2957658818e-09   9.9997546627e-01
8.81048873e-06 -5.19174864e-01  -1.9129888650e+00   9.4036272386e-09   9.9997518218e-01
8.91250938e-06 -5.19174624e-01  -1.9129882414e+00   9.5127457272e-09   9.9997489481e-01
9.01571138e-06 -5.19174383e-01  -1.9129876106e+00   9.6231362041e-09   9.9997460411e-01
9.12010839e-06 -5.19174138e-01  -1.9129869725e+00   9.7348136856e-09   9.9997431005e-01
9.22571427e-06 -5.19173890e-01  -1.9129863270e+00   9.8477933959e-09   9.9997401258e-01
9.33254301e-06 -5.19173640e-01  -1.9129856740e+00   9.9620907632e-09   9.9997371166e-01
9.44060876e-06 -5.19173387e-01  -1.9129850134e+00   1.0077721367e-08   9.9997340727e-01
9.54992586e-06 -5.19173131e-01  -1.9129843452e+00   1.0194700992e-08   9.9997309934e-01
9.66050879e-06 -5.19172872e-01  -1.9129836692e+00   1.0313045625e-08   9.9997278785e-01
9.77237221e-06 -5.19172609e-01  -1.9129829855e+00   1.0432771475e-08   9.9997247276e-01
9.88553095e-06 -5.19172344e-01  -1.9129822938e+00   1.0553894875e-08   9.9997215402e-01
1.00000000e-05 -5.19172076e-01  -1.9129815941e+00   1.0676432467e-08   9.9997183158e-01
1.01157945e-05 -5.19171805e-01  -1.9129808863e+00   1.0800401013e-08   9.9997150541e-01
1.02329299e-05 -5.19171530e-01  -1.9129801703e+00   1.0925817519e-08   9.9997117547e-01
1.03514217e-05 -5.19171253e-01  -1.9129794460e+00   1.1052699211e-08   9.9997084170e-01
1.04712855e-05 -5.19170972e-01  -1.9129787133e+00   1.1181063524e-08   9.9997050407e-01
1.05925373e-05 -5.19170688e-01  -1.9129779722e+00   1.1310928086e-08   9.9997016253e-01
1.07151931e-05 -5.19170400e-01  -1.9129772224e+00   1.1442310776e-08   9.9996981704e-01
1.08392691e-05 -5.19170109e-01  -1.9129764640e+00   1.1575229697e-08   9.9996946755e-01
1.09647820e-05 -5.19169815e-01  -1.9129756968e+00   1.1709703190e-08   9.9996911401e-01
1.10917482e-05 -5.19169518e-01  -1.9129749207e+00   1.1845749773e-08   9.9996875637e-01
1.12201845e-05 -5.19169217e-01  -1.9129741357e+00   1.1983388257e-08   9.9996839460e-01
1.13501082e-05 -5.19168912e-01  -1.9129733415e+00   1.2122637662e-08   9.9996802863e-01
1.14815362e-05 -5.19168604e-01  -1.9129725381e+00   1.2263517265e-08   9.9996765843e-01
1.16144861e-05 -5.19168293e-01  -1.9129717255e+00   1.2406046583e-08   9.9996728394e-01
1.17489755e-05 -5.19167978e-01  -1.9129709034e+00   1.2550245347e-08   9.9996690512e-01
1.18850223e-05 -5.19167659e-01  -1.9129700718e+00   1.2696133608e-08   9.9996652190e-01
1.20226443e-05 -5.19167336e-01  -1.9129692306e+00   1.2843731640e-08   9.9996613426e-01
1.21618600e-05 -5.19167010e-01  -1.9129683796e+00   1.2993059936e-08   9.9996574212e-01
1.23026877e-05 -5.19166680e-01  -1.9129675188e+00   1.3144139333e-08   9.9996534544e-01
1.24451461e-05 -5.19166346e-01  -1.9129666480e+00   1.3296990846e-08   9.9996494417e-01
1.25892541e-05 -5.19166009e-01  -1.9129657672e+00   1.3451635855e-08   9.9996453826e-01
1.27350308e-05 -5.19165667e-01  -1.9129648761e+00   1.3608095946e-08   9.9996412764e-01
1.28824955e-05 -5.19165321e-01  -1.9129639747e+00   1.3766393020e-08   9.9996371227e-01
1.30316678e-05 -5.19164972e-01  -1.9129630629e+00   1.3926549233e-08   9.9996329209e-01
1.31825674e-05 -5.19164618e-01  -1.9129621405e+00   1.4088587073e-08   9.9996286704e-01
1.33352143e-05 -5.19164261e-01  -1.9129612075e+00   1.4252529256e-08   9.9996243707e-01
