##          Q2              z             GE(M)n            dGE(M)n               GDip
1.00000000e-06 -5.19193167e-01  -1.9130366074e+00   1.4149412645e-09   9.9999718310e-01
1.01157945e-06 -5.19193140e-01  -1.9130365366e+00   1.4313255463e-09   9.9999715049e-01
1.02329299e-06 -5.19193112e-01  -1.9130364650e+00   1.4478995556e-09   9.9999711749e-01
1.03514217e-06 -5.19193085e-01  -1.9130363926e+00   1.4646654892e-09   9.9999708411e-01
1.04712855e-06 -5.19193057e-01  -1.9130363193e+00   1.4816255726e-09   9.9999705035e-01
1.05925373e-06 -5.19193028e-01  -1.9130362452e+00   1.4987820497e-09   9.9999701619e-01
1.07151931e-06 -5.19192999e-01  -1.9130361702e+00   1.5161372002e-09   9.9999698164e-01
1.08392691e-06 -5.19192970e-01  -1.9130360944e+00   1.5336933203e-09   9.9999694669e-01
1.09647820e-06 -5.19192941e-01  -1.9130360176e+00   1.5514527399e-09   9.9999691134e-01
1.10917482e-06 -5.19192911e-01  -1.9130359400e+00   1.5694178144e-09   9.9999687557e-01
1.12201845e-06 -5.19192881e-01  -1.9130358615e+00   1.5875909234e-09   9.9999683939e-01
1.13501082e-06 -5.19192851e-01  -1.9130357821e+00   1.6059744777e-09   9.9999680279e-01
1.14815362e-06 -5.19192820e-01  -1.9130357018e+00   1.6245709149e-09   9.9999676577e-01
1.16144861e-06 -5.19192789e-01  -1.9130356205e+00   1.6433826998e-09   9.9999672832e-01
1.17489755e-06 -5.19192757e-01  -1.9130355383e+00   1.6624123259e-09   9.9999669044e-01
1.18850223e-06 -5.19192725e-01  -1.9130354551e+00   1.6816623178e-09   9.9999665211e-01
1.20226443e-06 -5.19192693e-01  -1.9130353710e+00   1.7011352282e-09   9.9999661335e-01
1.21618600e-06 -5.19192660e-01  -1.9130352859e+00   1.7208336376e-09   9.9999657413e-01
1.23026877e-06 -5.19192627e-01  -1.9130351998e+00   1.7407601575e-09   9.9999653446e-01
1.24451461e-06 -5.19192594e-01  -1.9130351128e+00   1.7609174319e-09   9.9999649433e-01
1.25892541e-06 -5.19192560e-01  -1.9130350247e+00   1.7813081317e-09   9.9999645374e-01
1.27350308e-06 -5.19192526e-01  -1.9130349356e+00   1.8019349612e-09   9.9999641268e-01
1.28824955e-06 -5.19192492e-01  -1.9130348454e+00   1.8228006570e-09   9.9999637114e-01
1.30316678e-06 -5.19192457e-01  -1.9130347542e+00   1.8439079844e-09   9.9999632912e-01
1.31825674e-06 -5.19192421e-01  -1.9130346620e+00   1.8652597391e-09   9.9999628661e-01
1.33352143e-06 -5.19192385e-01  -1.9130345687e+00   1.8868587585e-09   9.9999624361e-01
1.34896288e-06 -5.19192349e-01  -1.9130344743e+00   1.9087079026e-09   9.9999620012e-01
1.36458314e-06 -5.19192313e-01  -1.9130343788e+00   1.9308100696e-09   9.9999615611e-01
1.38038426e-06 -5.19192276e-01  -1.9130342822e+00   1.9531681904e-09   9.9999611160e-01
1.39636836e-06 -5.19192238e-01  -1.9130341845e+00   1.9757852293e-09   9.9999606658e-01
1.41253754e-06 -5.19192200e-01  -1.9130340857e+00   1.9986641856e-09   9.9999602103e-01
1.42889396e-06 -5.19192162e-01  -1.9130339857e+00   2.0218080960e-09   9.9999597496e-01
1.44543977e-06 -5.19192123e-01  -1.9130338846e+00   2.0452200262e-09   9.9999592835e-01
1.46217717e-06 -5.19192084e-01  -1.9130337823e+00   2.0689030827e-09   9.9999588120e-01
1.47910839e-06 -5.19192044e-01  -1.9130336788e+00   2.0928604057e-09   9.9999583351e-01
1.49623566e-06 -5.19192004e-01  -1.9130335741e+00   2.1170951699e-09   9.9999578526e-01
1.51356125e-06 -5.19191964e-01  -1.9130334682e+00   2.1416105931e-09   9.9999573646e-01
1.53108746e-06 -5.19191922e-01  -1.9130333610e+00   2.1664099267e-09   9.9999568709e-01
1.54881662e-06 -5.19191881e-01  -1.9130332527e+00   2.1914964561e-09   9.9999563715e-01
1.56675107e-06 -5.19191839e-01  -1.9130331430e+00   2.2168735117e-09   9.9999558663e-01
1.58489319e-06 -5.19191796e-01  -1.9130330321e+00   2.2425444585e-09   9.9999553553e-01
1.60324539e-06 -5.19191753e-01  -1.9130329200e+00   2.2685126996e-09   9.9999548383e-01
1.62181010e-06 -5.19191710e-01  -1.9130328065e+00   2.2947816788e-09   9.9999543154e-01
1.64058977e-06 -5.19191666e-01  -1.9130326917e+00   2.3213548862e-09   9.9999537864e-01
1.65958691e-06 -5.19191621e-01  -1.9130325756e+00   2.3482358382e-09   9.9999532512e-01
1.67880402e-06 -5.19191576e-01  -1.9130324581e+00   2.3754281051e-09   9.9999527099e-01
1.69824365e-06 -5.19191531e-01  -1.9130323393e+00   2.4029352954e-09   9.9999521623e-01
1.71790839e-06 -5.19191485e-01  -1.9130322191e+00   2.4307610499e-09   9.9999516084e-01
1.73780083e-06 -5.19191438e-01  -1.9130320975e+00   2.4589090687e-09   9.9999510480e-01
1.75792361e-06 -5.19191391e-01  -1.9130319745e+00   2.4873830812e-09   9.9999504812e-01
1.77827941e-06 -5.19191343e-01  -1.9130318501e+00   2.5161868630e-09   9.9999499078e-01
1.79887092e-06 -5.19191295e-01  -1.9130317242e+00   2.5453242402e-09   9.9999493278e-01
1.81970086e-06 -5.19191246e-01  -1.9130315969e+00   2.5747990707e-09   9.9999487410e-01
1.84077200e-06 -5.19191197e-01  -1.9130314681e+00   2.6046152724e-09   9.9999481475e-01
1.86208714e-06 -5.19191147e-01  -1.9130313378e+00   2.6347767974e-09   9.9999475470e-01
1.88364909e-06 -5.19191096e-01  -1.9130312060e+00   2.6652876483e-09   9.9999469397e-01
1.90546072e-06 -5.19191045e-01  -1.9130310726e+00   2.6961518698e-09   9.9999463253e-01
1.92752491e-06 -5.19190993e-01  -1.9130309378e+00   2.7273735596e-09   9.9999457037e-01
1.94984460e-06 -5.19190941e-01  -1.9130308013e+00   2.7589568600e-09   9.9999450750e-01
1.97242274e-06 -5.19190888e-01  -1.9130306633e+00   2.7909059602e-09   9.9999444390e-01
1.99526231e-06 -5.19190835e-01  -1.9130305237e+00   2.8232251003e-09   9.9999437957e-01
2.01836636e-06 -5.19190781e-01  -1.9130303825e+00   2.8559185658e-09   9.9999431449e-01
2.04173794e-06 -5.19190726e-01  -1.9130302396e+00   2.8889907009e-09   9.9999424865e-01
2.06538016e-06 -5.19190670e-01  -1.9130300951e+00   2.9224458930e-09   9.9999418205e-01
2.08929613e-06 -5.19190614e-01  -1.9130299489e+00   2.9562885766e-09   9.9999411468e-01
2.11348904e-06 -5.19190558e-01  -1.9130298010e+00   2.9905232449e-09   9.9999404654e-01
2.13796209e-06 -5.19190500e-01  -1.9130296515e+00   3.0251544435e-09   9.9999397760e-01
2.16271852e-06 -5.19190442e-01  -1.9130295001e+00   3.0601867678e-09   9.9999390786e-01
2.18776162e-06 -5.19190384e-01  -1.9130293470e+00   3.0956248608e-09   9.9999383732e-01
2.21309471e-06 -5.19190324e-01  -1.9130291922e+00   3.1314734366e-09   9.9999376596e-01
2.23872114e-06 -5.19190264e-01  -1.9130290356e+00   3.1677372478e-09   9.9999369377e-01
2.26464431e-06 -5.19190203e-01  -1.9130288771e+00   3.2044211063e-09   9.9999362075e-01
2.29086765e-06 -5.19190142e-01  -1.9130287168e+00   3.2415298805e-09   9.9999354688e-01
2.31739465e-06 -5.19190080e-01  -1.9130285547e+00   3.2790684999e-09   9.9999347216e-01
2.34422882e-06 -5.19190017e-01  -1.9130283906e+00   3.3170419477e-09   9.9999339657e-01
2.37137371e-06 -5.19189953e-01  -1.9130282247e+00   3.3554552624e-09   9.9999332011e-01
2.39883292e-06 -5.19189889e-01  -1.9130280569e+00   3.3943135448e-09   9.9999324276e-01
2.42661010e-06 -5.19189824e-01  -1.9130278871e+00   3.4336219509e-09   9.9999316451e-01
2.45470892e-06 -5.19189758e-01  -1.9130277153e+00   3.4733857059e-09   9.9999308536e-01
2.48313311e-06 -5.19189691e-01  -1.9130275416e+00   3.5136100840e-09   9.9999300530e-01
2.51188643e-06 -5.19189624e-01  -1.9130273658e+00   3.5543004259e-09   9.9999292430e-01
2.54097271e-06 -5.19189556e-01  -1.9130271880e+00   3.5954621383e-09   9.9999284237e-01
2.57039578e-06 -5.19189487e-01  -1.9130270082e+00   3.6371006850e-09   9.9999275949e-01
2.60015956e-06 -5.19189417e-01  -1.9130268262e+00   3.6792215952e-09   9.9999267565e-01
2.63026799e-06 -5.19189346e-01  -1.9130266422e+00   3.7218304644e-09   9.9999259084e-01
2.66072506e-06 -5.19189275e-01  -1.9130264560e+00   3.7649329515e-09   9.9999250504e-01
2.69153480e-06 -5.19189203e-01  -1.9130262677e+00   3.8085347753e-09   9.9999241825e-01
2.72270131e-06 -5.19189130e-01  -1.9130260772e+00   3.8526417338e-09   9.9999233046e-01
2.75422870e-06 -5.19189056e-01  -1.9130258845e+00   3.8972596838e-09   9.9999224165e-01
2.78612117e-06 -5.19188981e-01  -1.9130256895e+00   3.9423945482e-09   9.9999215182e-01
2.81838293e-06 -5.19188906e-01  -1.9130254923e+00   3.9880523343e-09   9.9999206094e-01
2.85101827e-06 -5.19188829e-01  -1.9130252928e+00   4.0342390946e-09   9.9999196901e-01
2.88403150e-06 -5.19188752e-01  -1.9130250910e+00   4.0809609755e-09   9.9999187602e-01
2.91742701e-06 -5.19188674e-01  -1.9130248869e+00   4.1282241805e-09   9.9999178195e-01
2.95120923e-06 -5.19188594e-01  -1.9130246804e+00   4.1760349841e-09   9.9999168679e-01
2.98538262e-06 -5.19188514e-01  -1.9130244715e+00   4.2243997480e-09   9.9999159052e-01
3.01995172e-06 -5.19188433e-01  -1.9130242602e+00   4.2733248946e-09   9.9999149315e-01
3.05492111e-06 -5.19188351e-01  -1.9130240464e+00   4.3228169298e-09   9.9999139464e-01
3.09029543e-06 -5.19188268e-01  -1.9130238302e+00   4.3728824343e-09   9.9999129500e-01
3.12607937e-06 -5.19188185e-01  -1.9130236115e+00   4.4235280537e-09   9.9999119420e-01
3.16227766e-06 -5.19188100e-01  -1.9130233902e+00   4.4747605279e-09   9.9999109224e-01
3.19889511e-06 -5.19188014e-01  -1.9130231664e+00   4.5265866653e-09   9.9999098909e-01
3.23593657e-06 -5.19187927e-01  -1.9130229400e+00   4.5790133531e-09   9.9999088475e-01
3.27340695e-06 -5.19187839e-01  -1.9130227109e+00   4.6320475670e-09   9.9999077920e-01
3.31131121e-06 -5.19187750e-01  -1.9130224792e+00   4.6856963561e-09   9.9999067243e-01
3.34965439e-06 -5.19187661e-01  -1.9130222449e+00   4.7399668515e-09   9.9999056442e-01
3.38844156e-06 -5.19187570e-01  -1.9130220078e+00   4.7948662821e-09   9.9999045516e-01
3.42767787e-06 -5.19187478e-01  -1.9130217679e+00   4.8504019383e-09   9.9999034464e-01
3.46736850e-06 -5.19187385e-01  -1.9130215253e+00   4.9065812095e-09   9.9999023284e-01
3.50751874e-06 -5.19187291e-01  -1.9130212799e+00   4.9634115680e-09   9.9999011974e-01
3.54813389e-06 -5.19187195e-01  -1.9130210316e+00   5.0209005793e-09   9.9999000533e-01
3.58921935e-06 -5.19187099e-01  -1.9130207805e+00   5.0790558886e-09   9.9998988960e-01
3.63078055e-06 -5.19187002e-01  -1.9130205264e+00   5.1378852396e-09   9.9998977253e-01
3.67282300e-06 -5.19186903e-01  -1.9130202695e+00   5.1973964458e-09   9.9998965410e-01
3.71535229e-06 -5.19186804e-01  -1.9130200095e+00   5.2575974462e-09   9.9998953430e-01
3.75837404e-06 -5.19186703e-01  -1.9130197465e+00   5.3184962419e-09   9.9998941311e-01
3.80189396e-06 -5.19186601e-01  -1.9130194805e+00   5.3801009488e-09   9.9998929053e-01
3.84591782e-06 -5.19186498e-01  -1.9130192114e+00   5.4424197552e-09   9.9998916652e-01
3.89045145e-06 -5.19186393e-01  -1.9130189392e+00   5.5054609669e-09   9.9998904107e-01
3.93550075e-06 -5.19186288e-01  -1.9130186638e+00   5.5692329801e-09   9.9998891417e-01
3.98107171e-06 -5.19186181e-01  -1.9130183853e+00   5.6337442854e-09   9.9998878581e-01
4.02717034e-06 -5.19186073e-01  -1.9130181035e+00   5.6990034689e-09   9.9998865595e-01
4.07380278e-06 -5.19185964e-01  -1.9130178184e+00   5.7650192282e-09   9.9998852460e-01
4.12097519e-06 -5.19185853e-01  -1.9130175301e+00   5.8318003653e-09   9.9998839172e-01
4.16869383e-06 -5.19185741e-01  -1.9130172384e+00   5.8993557635e-09   9.9998825730e-01
4.21696503e-06 -5.19185628e-01  -1.9130169433e+00   5.9676944344e-09   9.9998812133e-01
4.26579519e-06 -5.19185514e-01  -1.9130166449e+00   6.0368254860e-09   9.9998798378e-01
4.31519077e-06 -5.19185398e-01  -1.9130163429e+00   6.1067581328e-09   9.9998784464e-01
4.36515832e-06 -5.19185281e-01  -1.9130160375e+00   6.1775016935e-09   9.9998770389e-01
4.41570447e-06 -5.19185162e-01  -1.9130157285e+00   6.2490655970e-09   9.9998756151e-01
4.46683592e-06 -5.19185043e-01  -1.9130154160e+00   6.3214593958e-09   9.9998741748e-01
4.51855944e-06 -5.19184921e-01  -1.9130150998e+00   6.3946927419e-09   9.9998727179e-01
4.57088190e-06 -5.19184799e-01  -1.9130147800e+00   6.4687753990e-09   9.9998712440e-01
4.62381021e-06 -5.19184675e-01  -1.9130144565e+00   6.5437172519e-09   9.9998697531e-01
4.67735141e-06 -5.19184549e-01  -1.9130141292e+00   6.6195283029e-09   9.9998682449e-01
4.73151259e-06 -5.19184422e-01  -1.9130137981e+00   6.6962186662e-09   9.9998667193e-01
4.78630092e-06 -5.19184294e-01  -1.9130134632e+00   6.7737985737e-09   9.9998651760e-01
4.84172368e-06 -5.19184164e-01  -1.9130131244e+00   6.8522783949e-09   9.9998636148e-01
4.89778819e-06 -5.19184033e-01  -1.9130127817e+00   6.9316685952e-09   9.9998620356e-01
4.95450191e-06 -5.19183900e-01  -1.9130124351e+00   7.0119797879e-09   9.9998604380e-01
5.01187234e-06 -5.19183765e-01  -1.9130120844e+00   7.0932226820e-09   9.9998588220e-01
5.06990708e-06 -5.19183629e-01  -1.9130117297e+00   7.1754081504e-09   9.9998571872e-01
5.12861384e-06 -5.19183492e-01  -1.9130113708e+00   7.2585471717e-09   9.9998555336e-01
5.18800039e-06 -5.19183352e-01  -1.9130110078e+00   7.3426508382e-09   9.9998538607e-01
5.24807460e-06 -5.19183212e-01  -1.9130106406e+00   7.4277304152e-09   9.9998521686e-01
5.30884444e-06 -5.19183069e-01  -1.9130102691e+00   7.5137972573e-09   9.9998504568e-01
5.37031796e-06 -5.19182925e-01  -1.9130098934e+00   7.6008628941e-09   9.9998487252e-01
5.43250331e-06 -5.19182780e-01  -1.9130095133e+00   7.6889389564e-09   9.9998469735e-01
5.49540874e-06 -5.19182632e-01  -1.9130091287e+00   7.7780372284e-09   9.9998452016e-01
5.55904257e-06 -5.19182483e-01  -1.9130087398e+00   7.8681696404e-09   9.9998434091e-01
5.62341325e-06 -5.19182332e-01  -1.9130083463e+00   7.9593482462e-09   9.9998415959e-01
5.68852931e-06 -5.19182180e-01  -1.9130079483e+00   8.0515852673e-09   9.9998397617e-01
5.75439937e-06 -5.19182025e-01  -1.9130075456e+00   8.1448930310e-09   9.9998379062e-01
5.82103218e-06 -5.19181869e-01  -1.9130071383e+00   8.2392840527e-09   9.9998360293e-01
5.88843655e-06 -5.19181711e-01  -1.9130067263e+00   8.3347709749e-09   9.9998341306e-01
5.95662144e-06 -5.19181551e-01  -1.9130063095e+00   8.4313665950e-09   9.9998322100e-01
6.02559586e-06 -5.19181390e-01  -1.9130058879e+00   8.5290838551e-09   9.9998302671e-01
6.09536897e-06 -5.19181226e-01  -1.9130054614e+00   8.6279358692e-09   9.9998283017e-01
6.16595002e-06 -5.19181061e-01  -1.9130050300e+00   8.7279358778e-09   9.9998263135e-01
6.23734835e-06 -5.19180893e-01  -1.9130045936e+00   8.8290973046e-09   9.9998243024e-01
6.30957344e-06 -5.19180724e-01  -1.9130041521e+00   8.9314337383e-09   9.9998222679e-01
6.38263486e-06 -5.19180553e-01  -1.9130037055e+00   9.0349588836e-09   9.9998202099e-01
6.45654229e-06 -5.19180380e-01  -1.9130032537e+00   9.1396866707e-09   9.9998181281e-01
6.53130553e-06 -5.19180205e-01  -1.9130027967e+00   9.2456311541e-09   9.9998160221e-01
6.60693448e-06 -5.19180027e-01  -1.9130023345e+00   9.3528065736e-09   9.9998138918e-01
6.68343918e-06 -5.19179848e-01  -1.9130018668e+00   9.4612273286e-09   9.9998117368e-01
6.76082975e-06 -5.19179667e-01  -1.9130013938e+00   9.5709079912e-09   9.9998095568e-01
6.83911647e-06 -5.19179483e-01  -1.9130009152e+00   9.6818633276e-09   9.9998073516e-01
6.91830971e-06 -5.19179298e-01  -1.9130004312e+00   9.7941082501e-09   9.9998051209e-01
6.99841996e-06 -5.19179110e-01  -1.9129999415e+00   9.9076578775e-09   9.9998028643e-01
7.07945784e-06 -5.19178920e-01  -1.9129994461e+00   1.0022527482e-08   9.9998005816e-01
7.16143410e-06 -5.19178728e-01  -1.9129989450e+00   1.0138732561e-08   9.9997982725e-01
7.24435960e-06 -5.19178534e-01  -1.9129984382e+00   1.0256288748e-08   9.9997959367e-01
7.32824533e-06 -5.19178337e-01  -1.9129979254e+00   1.0375211892e-08   9.9997935737e-01
7.41310241e-06 -5.19178138e-01  -1.9129974067e+00   1.0495518034e-08   9.9997911835e-01
7.49894209e-06 -5.19177937e-01  -1.9129968820e+00   1.0617223407e-08   9.9997887655e-01
7.58577575e-06 -5.19177733e-01  -1.9129963512e+00   1.0740344422e-08   9.9997863196e-01
7.67361489e-06 -5.19177528e-01  -1.9129958143e+00   1.0864897716e-08   9.9997838453e-01
7.76247117e-06 -5.19177319e-01  -1.9129952712e+00   1.0990900113e-08   9.9997813424e-01
7.85235635e-06 -5.19177109e-01  -1.9129947217e+00   1.1118368634e-08   9.9997788105e-01
7.94328235e-06 -5.19176896e-01  -1.9129941659e+00   1.1247320510e-08   9.9997762493e-01
8.03526122e-06 -5.19176680e-01  -1.9129936037e+00   1.1377773185e-08   9.9997736585e-01
8.12830516e-06 -5.19176462e-01  -1.9129930350e+00   1.1509744295e-08   9.9997710376e-01
8.22242650e-06 -5.19176242e-01  -1.9129924597e+00   1.1643251746e-08   9.9997683864e-01
8.31763771e-06 -5.19176018e-01  -1.9129918777e+00   1.1778313595e-08   9.9997657045e-01
8.41395142e-06 -5.19175793e-01  -1.9129912890e+00   1.1914948145e-08   9.9997629915e-01
8.51138038e-06 -5.19175564e-01  -1.9129906934e+00   1.2053173941e-08   9.9997602471e-01
8.60993752e-06 -5.19175333e-01  -1.9129900910e+00   1.2193009719e-08   9.9997574710e-01
8.70963590e-06 -5.19175100e-01  -1.9129894816e+00   1.2334474466e-08   9.9997546627e-01
8.81048873e-06 -5.19174864e-01  -1.9129888651e+00   1.2477587393e-08   9.9997518218e-01
8.91250938e-06 -5.19174624e-01  -1.9129882415e+00   1.2622367958e-08   9.9997489481e-01
9.01571138e-06 -5.19174383e-01  -1.9129876107e+00   1.2768835838e-08   9.9997460411e-01
9.12010839e-06 -5.19174138e-01  -1.9129869725e+00   1.2917010976e-08   9.9997431005e-01
9.22571427e-06 -5.19173890e-01  -1.9129863270e+00   1.3066913521e-08   9.9997401258e-01
9.33254301e-06 -5.19173640e-01  -1.9129856740e+00   1.3218563908e-08   9.9997371166e-01
9.44060876e-06 -5.19173387e-01  -1.9129850135e+00   1.3371982820e-08   9.9997340727e-01
9.54992586e-06 -5.19173131e-01  -1.9129843453e+00   1.3527191153e-08   9.9997309934e-01
9.66050879e-06 -5.19172872e-01  -1.9129836693e+00   1.3684210123e-08   9.9997278785e-01
9.77237221e-06 -5.19172609e-01  -1.9129829855e+00   1.3843061149e-08   9.9997247276e-01
9.88553095e-06 -5.19172344e-01  -1.9129822939e+00   1.4003765991e-08   9.9997215402e-01
1.00000000e-05 -5.19172076e-01  -1.9129815942e+00   1.4166346582e-08   9.9997183158e-01
1.01157945e-05 -5.19171805e-01  -1.9129808864e+00   1.4330825200e-08   9.9997150541e-01
1.02329299e-05 -5.19171530e-01  -1.9129801704e+00   1.4497224372e-08   9.9997117547e-01
1.03514217e-05 -5.19171253e-01  -1.9129794461e+00   1.4665566898e-08   9.9997084170e-01
1.04712855e-05 -5.19170972e-01  -1.9129787134e+00   1.4835875880e-08   9.9997050407e-01
1.05925373e-05 -5.19170688e-01  -1.9129779722e+00   1.5008174712e-08   9.9997016253e-01
1.07151931e-05 -5.19170400e-01  -1.9129772225e+00   1.5182487061e-08   9.9996981704e-01
1.08392691e-05 -5.19170109e-01  -1.9129764641e+00   1.5358836927e-08   9.9996946755e-01
1.09647820e-05 -5.19169815e-01  -1.9129756969e+00   1.5537248547e-08   9.9996911401e-01
1.10917482e-05 -5.19169518e-01  -1.9129749208e+00   1.5717746526e-08   9.9996875637e-01
1.12201845e-05 -5.19169217e-01  -1.9129741357e+00   1.5900355756e-08   9.9996839460e-01
1.13501082e-05 -5.19168912e-01  -1.9129733416e+00   1.6085101440e-08   9.9996802863e-01
1.14815362e-05 -5.19168604e-01  -1.9129725382e+00   1.6272009067e-08   9.9996765843e-01
1.16144861e-05 -5.19168293e-01  -1.9129717256e+00   1.6461104537e-08   9.9996728394e-01
1.17489755e-05 -5.19167978e-01  -1.9129709035e+00   1.6652413980e-08   9.9996690512e-01
1.18850223e-05 -5.19167659e-01  -1.9129700719e+00   1.6845963929e-08   9.9996652190e-01
1.20226443e-05 -5.19167336e-01  -1.9129692307e+00   1.7041781230e-08   9.9996613426e-01
1.21618600e-05 -5.19167010e-01  -1.9129683797e+00   1.7239893052e-08   9.9996574212e-01
1.23026877e-05 -5.19166680e-01  -1.9129675189e+00   1.7440326943e-08   9.9996534544e-01
1.24451461e-05 -5.19166346e-01  -1.9129666481e+00   1.7643110796e-08   9.9996494417e-01
1.25892541e-05 -5.19166009e-01  -1.9129657673e+00   1.7848272851e-08   9.9996453826e-01
1.27350308e-05 -5.19165667e-01  -1.9129648762e+00   1.8055841727e-08   9.9996412764e-01
1.28824955e-05 -5.19165321e-01  -1.9129639748e+00   1.8265846384e-08   9.9996371227e-01
1.30316678e-05 -5.19164972e-01  -1.9129630630e+00   1.8478316208e-08   9.9996329209e-01
1.31825674e-05 -5.19164618e-01  -1.9129621406e+00   1.8693280907e-08   9.9996286704e-01
1.33352143e-05 -5.19164261e-01  -1.9129612076e+00   1.8910770613e-08   9.9996243707e-01
