##          Q2              z             GE(M)n            dGE(M)n               GDip
1.00000000e-06 -8.28234020e-01  -1.9130367409e+00   1.4149225247e-09   9.9999718310e-01
1.01157945e-06 -8.28234009e-01  -1.9130366701e+00   1.4313063236e-09   9.9999715049e-01
1.02329299e-06 -8.28233997e-01  -1.9130365985e+00   1.4478798326e-09   9.9999711749e-01
1.03514217e-06 -8.28233985e-01  -1.9130365260e+00   1.4646452480e-09   9.9999708411e-01
1.04712855e-06 -8.28233973e-01  -1.9130364528e+00   1.4816047923e-09   9.9999705035e-01
1.05925373e-06 -8.28233961e-01  -1.9130363787e+00   1.4987607133e-09   9.9999701619e-01
1.07151931e-06 -8.28233948e-01  -1.9130363037e+00   1.5161152847e-09   9.9999698164e-01
1.08392691e-06 -8.28233936e-01  -1.9130362278e+00   1.5336708064e-09   9.9999694669e-01
1.09647820e-06 -8.28233923e-01  -1.9130361511e+00   1.5514296054e-09   9.9999691134e-01
1.10917482e-06 -8.28233910e-01  -1.9130360735e+00   1.5693940348e-09   9.9999687557e-01
1.12201845e-06 -8.28233898e-01  -1.9130359950e+00   1.5875664765e-09   9.9999683939e-01
1.13501082e-06 -8.28233884e-01  -1.9130359156e+00   1.6059493389e-09   9.9999680279e-01
1.14815362e-06 -8.28233871e-01  -1.9130358352e+00   1.6245450579e-09   9.9999676577e-01
1.16144861e-06 -8.28233858e-01  -1.9130357540e+00   1.6433560983e-09   9.9999672832e-01
1.17489755e-06 -8.28233844e-01  -1.9130356718e+00   1.6623849533e-09   9.9999669044e-01
1.18850223e-06 -8.28233831e-01  -1.9130355886e+00   1.6816341447e-09   9.9999665211e-01
1.20226443e-06 -8.28233817e-01  -1.9130355045e+00   1.7011062242e-09   9.9999661335e-01
1.21618600e-06 -8.28233803e-01  -1.9130354194e+00   1.7208037718e-09   9.9999657413e-01
1.23026877e-06 -8.28233788e-01  -1.9130353333e+00   1.7407293987e-09   9.9999653446e-01
1.24451461e-06 -8.28233774e-01  -1.9130352462e+00   1.7608857458e-09   9.9999649433e-01
1.25892541e-06 -8.28233760e-01  -1.9130351581e+00   1.7812754838e-09   9.9999645374e-01
1.27350308e-06 -8.28233745e-01  -1.9130350690e+00   1.8019013163e-09   9.9999641268e-01
1.28824955e-06 -8.28233730e-01  -1.9130349789e+00   1.8227659760e-09   9.9999637114e-01
1.30316678e-06 -8.28233715e-01  -1.9130348877e+00   1.8438722279e-09   9.9999632912e-01
1.31825674e-06 -8.28233700e-01  -1.9130347955e+00   1.8652228708e-09   9.9999628661e-01
1.33352143e-06 -8.28233684e-01  -1.9130347022e+00   1.8868207330e-09   9.9999624361e-01
1.34896288e-06 -8.28233669e-01  -1.9130346078e+00   1.9086686775e-09   9.9999620012e-01
1.36458314e-06 -8.28233653e-01  -1.9130345123e+00   1.9307695993e-09   9.9999615611e-01
1.38038426e-06 -8.28233637e-01  -1.9130344157e+00   1.9531264286e-09   9.9999611160e-01
1.39636836e-06 -8.28233621e-01  -1.9130343180e+00   1.9757421279e-09   9.9999606658e-01
1.41253754e-06 -8.28233605e-01  -1.9130342192e+00   1.9986196941e-09   9.9999602103e-01
1.42889396e-06 -8.28233588e-01  -1.9130341192e+00   2.0217621601e-09   9.9999597496e-01
1.44543977e-06 -8.28233572e-01  -1.9130340181e+00   2.0451725927e-09   9.9999592835e-01
1.46217717e-06 -8.28233555e-01  -1.9130339158e+00   2.0688540940e-09   9.9999588120e-01
1.47910839e-06 -8.28233538e-01  -1.9130338123e+00   2.0928098034e-09   9.9999583351e-01
1.49623566e-06 -8.28233520e-01  -1.9130337076e+00   2.1170428953e-09   9.9999578526e-01
1.51356125e-06 -8.28233503e-01  -1.9130336017e+00   2.1415565818e-09   9.9999573646e-01
1.53108746e-06 -8.28233485e-01  -1.9130334945e+00   2.1663541113e-09   9.9999568709e-01
1.54881662e-06 -8.28233467e-01  -1.9130333862e+00   2.1914387706e-09   9.9999563715e-01
1.56675107e-06 -8.28233449e-01  -1.9130332765e+00   2.2168138840e-09   9.9999558663e-01
1.58489319e-06 -8.28233431e-01  -1.9130331656e+00   2.2424828148e-09   9.9999553553e-01
1.60324539e-06 -8.28233413e-01  -1.9130330535e+00   2.2684489648e-09   9.9999548383e-01
1.62181010e-06 -8.28233394e-01  -1.9130329400e+00   2.2947157754e-09   9.9999543154e-01
1.64058977e-06 -8.28233375e-01  -1.9130328252e+00   2.3212867279e-09   9.9999537864e-01
1.65958691e-06 -8.28233356e-01  -1.9130327091e+00   2.3481653431e-09   9.9999532512e-01
1.67880402e-06 -8.28233337e-01  -1.9130325916e+00   2.3753551839e-09   9.9999527099e-01
1.69824365e-06 -8.28233317e-01  -1.9130324728e+00   2.4028598538e-09   9.9999521623e-01
1.71790839e-06 -8.28233297e-01  -1.9130323526e+00   2.4306829977e-09   9.9999516084e-01
1.73780083e-06 -8.28233277e-01  -1.9130322310e+00   2.4588283035e-09   9.9999510480e-01
1.75792361e-06 -8.28233257e-01  -1.9130321080e+00   2.4872995003e-09   9.9999504812e-01
1.77827941e-06 -8.28233236e-01  -1.9130319836e+00   2.5161003627e-09   9.9999499078e-01
1.79887092e-06 -8.28233216e-01  -1.9130318577e+00   2.5452347068e-09   9.9999493278e-01
1.81970086e-06 -8.28233195e-01  -1.9130317304e+00   2.5747063937e-09   9.9999487410e-01
1.84077200e-06 -8.28233173e-01  -1.9130316016e+00   2.6045193299e-09   9.9999481475e-01
1.86208714e-06 -8.28233152e-01  -1.9130314713e+00   2.6346774661e-09   9.9999475470e-01
1.88364909e-06 -8.28233130e-01  -1.9130313395e+00   2.6651847990e-09   9.9999469397e-01
1.90546072e-06 -8.28233108e-01  -1.9130312061e+00   2.6960453720e-09   9.9999463253e-01
1.92752491e-06 -8.28233086e-01  -1.9130310713e+00   2.7272632749e-09   9.9999457037e-01
1.94984460e-06 -8.28233063e-01  -1.9130309348e+00   2.7588426449e-09   9.9999450750e-01
1.97242274e-06 -8.28233041e-01  -1.9130307968e+00   2.7907876670e-09   9.9999444390e-01
1.99526231e-06 -8.28233018e-01  -1.9130306572e+00   2.8231025753e-09   9.9999437957e-01
2.01836636e-06 -8.28232994e-01  -1.9130305160e+00   2.8557916517e-09   9.9999431449e-01
2.04173794e-06 -8.28232971e-01  -1.9130303731e+00   2.8888592294e-09   9.9999424865e-01
2.06538016e-06 -8.28232947e-01  -1.9130302286e+00   2.9223096894e-09   9.9999418205e-01
2.08929613e-06 -8.28232923e-01  -1.9130300824e+00   2.9561474657e-09   9.9999411468e-01
2.11348904e-06 -8.28232899e-01  -1.9130299346e+00   2.9903770427e-09   9.9999404654e-01
2.13796209e-06 -8.28232874e-01  -1.9130297850e+00   3.0250029568e-09   9.9999397760e-01
2.16271852e-06 -8.28232849e-01  -1.9130296336e+00   3.0600297959e-09   9.9999390786e-01
2.18776162e-06 -8.28232824e-01  -1.9130294806e+00   3.0954622031e-09   9.9999383732e-01
2.21309471e-06 -8.28232798e-01  -1.9130293257e+00   3.1313048735e-09   9.9999376596e-01
2.23872114e-06 -8.28232772e-01  -1.9130291691e+00   3.1675625574e-09   9.9999369377e-01
2.26464431e-06 -8.28232746e-01  -1.9130290106e+00   3.2042400598e-09   9.9999362075e-01
2.29086765e-06 -8.28232720e-01  -1.9130288503e+00   3.2413422414e-09   9.9999354688e-01
2.31739465e-06 -8.28232693e-01  -1.9130286882e+00   3.2788740189e-09   9.9999347216e-01
2.34422882e-06 -8.28232666e-01  -1.9130285242e+00   3.3168403662e-09   9.9999339657e-01
2.37137371e-06 -8.28232639e-01  -1.9130283582e+00   3.3552463152e-09   9.9999332011e-01
2.39883292e-06 -8.28232611e-01  -1.9130281904e+00   3.3940969551e-09   9.9999324276e-01
2.42661010e-06 -8.28232583e-01  -1.9130280206e+00   3.4333974347e-09   9.9999316451e-01
2.45470892e-06 -8.28232555e-01  -1.9130278488e+00   3.4731529623e-09   9.9999308536e-01
2.48313311e-06 -8.28232526e-01  -1.9130276751e+00   3.5133688066e-09   9.9999300530e-01
2.51188643e-06 -8.28232497e-01  -1.9130274993e+00   3.5540502964e-09   9.9999292430e-01
2.54097271e-06 -8.28232468e-01  -1.9130273215e+00   3.5952028237e-09   9.9999284237e-01
2.57039578e-06 -8.28232438e-01  -1.9130271417e+00   3.6368318421e-09   9.9999275949e-01
2.60015956e-06 -8.28232408e-01  -1.9130269598e+00   3.6789428674e-09   9.9999267565e-01
2.63026799e-06 -8.28232378e-01  -1.9130267757e+00   3.7215414814e-09   9.9999259084e-01
2.66072506e-06 -8.28232347e-01  -1.9130265896e+00   3.7646333281e-09   9.9999250504e-01
2.69153480e-06 -8.28232316e-01  -1.9130264012e+00   3.8082241192e-09   9.9999241825e-01
2.72270131e-06 -8.28232285e-01  -1.9130262107e+00   3.8523196309e-09   9.9999233046e-01
2.75422870e-06 -8.28232253e-01  -1.9130260180e+00   3.8969257067e-09   9.9999224165e-01
2.78612117e-06 -8.28232221e-01  -1.9130258231e+00   3.9420482577e-09   9.9999215182e-01
2.81838293e-06 -8.28232188e-01  -1.9130256259e+00   3.9876932639e-09   9.9999206094e-01
2.85101827e-06 -8.28232155e-01  -1.9130254264e+00   4.0338667735e-09   9.9999196901e-01
2.88403150e-06 -8.28232122e-01  -1.9130252246e+00   4.0805749059e-09   9.9999187602e-01
2.91742701e-06 -8.28232089e-01  -1.9130250205e+00   4.1278238506e-09   9.9999178195e-01
2.95120923e-06 -8.28232055e-01  -1.9130248140e+00   4.1756198692e-09   9.9999168679e-01
2.98538262e-06 -8.28232020e-01  -1.9130246051e+00   4.2239692952e-09   9.9999159052e-01
3.01995172e-06 -8.28231985e-01  -1.9130243938e+00   4.2728785357e-09   9.9999149315e-01
3.05492111e-06 -8.28231950e-01  -1.9130241800e+00   4.3223540724e-09   9.9999139464e-01
3.09029543e-06 -8.28231914e-01  -1.9130239638e+00   4.3724024612e-09   9.9999129500e-01
3.12607937e-06 -8.28231878e-01  -1.9130237451e+00   4.4230303347e-09   9.9999119420e-01
3.16227766e-06 -8.28231842e-01  -1.9130235238e+00   4.4742444016e-09   9.9999109224e-01
3.19889511e-06 -8.28231805e-01  -1.9130233000e+00   4.5260514491e-09   9.9999098909e-01
3.23593657e-06 -8.28231768e-01  -1.9130230736e+00   4.5784583416e-09   9.9999088475e-01
3.27340695e-06 -8.28231730e-01  -1.9130228445e+00   4.6314720245e-09   9.9999077920e-01
3.31131121e-06 -8.28231692e-01  -1.9130226128e+00   4.6850995229e-09   9.9999067243e-01
3.34965439e-06 -8.28231653e-01  -1.9130223785e+00   4.7393479424e-09   9.9999056442e-01
3.38844156e-06 -8.28231614e-01  -1.9130221414e+00   4.7942244726e-09   9.9999045516e-01
3.42767787e-06 -8.28231575e-01  -1.9130219015e+00   4.8497363853e-09   9.9999034464e-01
3.46736850e-06 -8.28231535e-01  -1.9130216589e+00   4.9058910357e-09   9.9999023284e-01
3.50751874e-06 -8.28231494e-01  -1.9130214135e+00   4.9626958658e-09   9.9999011974e-01
3.54813389e-06 -8.28231453e-01  -1.9130211652e+00   5.0201584028e-09   9.9999000533e-01
3.58921935e-06 -8.28231412e-01  -1.9130209141e+00   5.0782862610e-09   9.9998988960e-01
3.63078055e-06 -8.28231370e-01  -1.9130206601e+00   5.1370871433e-09   9.9998977253e-01
3.67282300e-06 -8.28231328e-01  -1.9130204031e+00   5.1965688412e-09   9.9998965410e-01
3.71535229e-06 -8.28231285e-01  -1.9130201431e+00   5.2567392367e-09   9.9998953430e-01
3.75837404e-06 -8.28231241e-01  -1.9130198802e+00   5.3176063031e-09   9.9998941311e-01
3.80189396e-06 -8.28231197e-01  -1.9130196141e+00   5.3791781060e-09   9.9998929053e-01
3.84591782e-06 -8.28231153e-01  -1.9130193450e+00   5.4414628037e-09   9.9998916652e-01
3.89045145e-06 -8.28231108e-01  -1.9130190728e+00   5.5044686501e-09   9.9998904107e-01
3.93550075e-06 -8.28231063e-01  -1.9130187975e+00   5.5682039940e-09   9.9998891417e-01
3.98107171e-06 -8.28231017e-01  -1.9130185189e+00   5.6326772805e-09   9.9998878581e-01
4.02717034e-06 -8.28230971e-01  -1.9130182371e+00   5.6978970531e-09   9.9998865595e-01
4.07380278e-06 -8.28230924e-01  -1.9130179521e+00   5.7638719536e-09   9.9998852460e-01
4.12097519e-06 -8.28230876e-01  -1.9130176638e+00   5.8306107246e-09   9.9998839172e-01
4.16869383e-06 -8.28230828e-01  -1.9130173721e+00   5.8981222089e-09   9.9998825730e-01
4.21696503e-06 -8.28230779e-01  -1.9130170770e+00   5.9664153526e-09   9.9998812133e-01
4.26579519e-06 -8.28230730e-01  -1.9130167786e+00   6.0354992045e-09   9.9998798378e-01
4.31519077e-06 -8.28230680e-01  -1.9130164766e+00   6.1053829191e-09   9.9998784464e-01
4.36515832e-06 -8.28230630e-01  -1.9130161712e+00   6.1760757559e-09   9.9998770389e-01
4.41570447e-06 -8.28230579e-01  -1.9130158622e+00   6.2475870821e-09   9.9998756151e-01
4.46683592e-06 -8.28230528e-01  -1.9130155497e+00   6.3199263729e-09   9.9998741748e-01
4.51855944e-06 -8.28230475e-01  -1.9130152335e+00   6.3931032142e-09   9.9998727179e-01
4.57088190e-06 -8.28230423e-01  -1.9130149137e+00   6.4671273015e-09   9.9998712440e-01
4.62381021e-06 -8.28230369e-01  -1.9130145902e+00   6.5420084440e-09   9.9998697531e-01
4.67735141e-06 -8.28230315e-01  -1.9130142629e+00   6.6177565623e-09   9.9998682449e-01
4.73151259e-06 -8.28230261e-01  -1.9130139319e+00   6.6943816940e-09   9.9998667193e-01
4.78630092e-06 -8.28230206e-01  -1.9130135970e+00   6.7718939918e-09   9.9998651760e-01
4.84172368e-06 -8.28230150e-01  -1.9130132582e+00   6.8503037265e-09   9.9998636148e-01
4.89778819e-06 -8.28230093e-01  -1.9130129155e+00   6.9296212864e-09   9.9998620356e-01
4.95450191e-06 -8.28230036e-01  -1.9130125689e+00   7.0098571819e-09   9.9998604380e-01
5.01187234e-06 -8.28229978e-01  -1.9130122182e+00   7.0910220436e-09   9.9998588220e-01
5.06990708e-06 -8.28229920e-01  -1.9130118634e+00   7.1731266257e-09   9.9998571872e-01
5.12861384e-06 -8.28229861e-01  -1.9130115046e+00   7.2561818076e-09   9.9998555336e-01
5.18800039e-06 -8.28229801e-01  -1.9130111416e+00   7.3401985931e-09   9.9998538607e-01
5.24807460e-06 -8.28229740e-01  -1.9130107744e+00   7.4251881144e-09   9.9998521686e-01
5.30884444e-06 -8.28229679e-01  -1.9130104030e+00   7.5111616320e-09   9.9998504568e-01
5.37031796e-06 -8.28229617e-01  -1.9130100272e+00   7.5981305378e-09   9.9998487252e-01
5.43250331e-06 -8.28229555e-01  -1.9130096471e+00   7.6861063538e-09   9.9998469735e-01
5.49540874e-06 -8.28229491e-01  -1.9130092626e+00   7.7751007367e-09   9.9998452016e-01
5.55904257e-06 -8.28229427e-01  -1.9130088736e+00   7.8651254778e-09   9.9998434091e-01
5.62341325e-06 -8.28229362e-01  -1.9130084802e+00   7.9561925047e-09   9.9998415959e-01
5.68852931e-06 -8.28229297e-01  -1.9130080822e+00   8.0483138829e-09   9.9998397617e-01
5.75439937e-06 -8.28229230e-01  -1.9130076795e+00   8.1415018181e-09   9.9998379062e-01
5.82103218e-06 -8.28229163e-01  -1.9130072722e+00   8.2357686563e-09   9.9998360293e-01
5.88843655e-06 -8.28229095e-01  -1.9130068602e+00   8.3311268878e-09   9.9998341306e-01
5.95662144e-06 -8.28229027e-01  -1.9130064435e+00   8.4275891464e-09   9.9998322100e-01
6.02559586e-06 -8.28228957e-01  -1.9130060219e+00   8.5251682120e-09   9.9998302671e-01
6.09536897e-06 -8.28228887e-01  -1.9130055954e+00   8.6238770127e-09   9.9998283017e-01
6.16595002e-06 -8.28228816e-01  -1.9130051640e+00   8.7237286267e-09   9.9998263135e-01
6.23734835e-06 -8.28228744e-01  -1.9130047275e+00   8.8247362832e-09   9.9998243024e-01
6.30957344e-06 -8.28228671e-01  -1.9130042861e+00   8.9269133637e-09   9.9998222679e-01
6.38263486e-06 -8.28228597e-01  -1.9130038395e+00   9.0302734063e-09   9.9998202099e-01
6.45654229e-06 -8.28228523e-01  -1.9130033877e+00   9.1348301037e-09   9.9998181281e-01
6.53130553e-06 -8.28228448e-01  -1.9130029308e+00   9.2405973091e-09   9.9998160221e-01
6.60693448e-06 -8.28228371e-01  -1.9130024685e+00   9.3475890343e-09   9.9998138918e-01
6.68343918e-06 -8.28228294e-01  -1.9130020009e+00   9.4558194543e-09   9.9998117368e-01
6.76082975e-06 -8.28228216e-01  -1.9130015278e+00   9.5653029079e-09   9.9998095568e-01
6.83911647e-06 -8.28228137e-01  -1.9130010493e+00   9.6760538995e-09   9.9998073516e-01
6.91830971e-06 -8.28228058e-01  -1.9130005652e+00   9.7880871020e-09   9.9998051209e-01
6.99841996e-06 -8.28227977e-01  -1.9130000756e+00   9.9014173572e-09   9.9998028643e-01
7.07945784e-06 -8.28227895e-01  -1.9129995802e+00   1.0016059680e-08   9.9998005816e-01
7.16143410e-06 -8.28227813e-01  -1.9129990792e+00   1.0132029257e-08   9.9997982725e-01
7.24435960e-06 -8.28227729e-01  -1.9129985723e+00   1.0249341453e-08   9.9997959367e-01
7.32824533e-06 -8.28227645e-01  -1.9129980596e+00   1.0368011809e-08   9.9997935737e-01
7.41310241e-06 -8.28227559e-01  -1.9129975409e+00   1.0488056045e-08   9.9997911835e-01
7.49894209e-06 -8.28227473e-01  -1.9129970162e+00   1.0609490066e-08   9.9997887655e-01
7.58577575e-06 -8.28227385e-01  -1.9129964854e+00   1.0732329958e-08   9.9997863196e-01
7.67361489e-06 -8.28227297e-01  -1.9129959485e+00   1.0856591995e-08   9.9997838453e-01
7.76247117e-06 -8.28227207e-01  -1.9129954054e+00   1.0982292638e-08   9.9997813424e-01
7.85235635e-06 -8.28227117e-01  -1.9129948560e+00   1.1109448539e-08   9.9997788105e-01
7.94328235e-06 -8.28227025e-01  -1.9129943002e+00   1.1238076544e-08   9.9997762493e-01
8.03526122e-06 -8.28226932e-01  -1.9129937380e+00   1.1368193691e-08   9.9997736585e-01
8.12830516e-06 -8.28226839e-01  -1.9129931693e+00   1.1499817218e-08   9.9997710376e-01
8.22242650e-06 -8.28226744e-01  -1.9129925940e+00   1.1632964562e-08   9.9997683864e-01
8.31763771e-06 -8.28226648e-01  -1.9129920120e+00   1.1767653359e-08   9.9997657045e-01
8.41395142e-06 -8.28226551e-01  -1.9129914233e+00   1.1903901454e-08   9.9997629915e-01
8.51138038e-06 -8.28226453e-01  -1.9129908278e+00   1.2041726893e-08   9.9997602471e-01
8.60993752e-06 -8.28226353e-01  -1.9129902254e+00   1.2181147935e-08   9.9997574710e-01
8.70963590e-06 -8.28226253e-01  -1.9129896160e+00   1.2322183048e-08   9.9997546627e-01
8.81048873e-06 -8.28226151e-01  -1.9129889996e+00   1.2464850915e-08   9.9997518218e-01
8.91250938e-06 -8.28226049e-01  -1.9129883760e+00   1.2609170436e-08   9.9997489481e-01
9.01571138e-06 -8.28225945e-01  -1.9129877452e+00   1.2755160725e-08   9.9997460411e-01
9.12010839e-06 -8.28225839e-01  -1.9129871071e+00   1.2902841124e-08   9.9997431005e-01
9.22571427e-06 -8.28225733e-01  -1.9129864616e+00   1.3052231193e-08   9.9997401258e-01
9.33254301e-06 -8.28225625e-01  -1.9129858086e+00   1.3203350721e-08   9.9997371166e-01
9.44060876e-06 -8.28225517e-01  -1.9129851481e+00   1.3356219727e-08   9.9997340727e-01
9.54992586e-06 -8.28225406e-01  -1.9129844799e+00   1.3510858458e-08   9.9997309934e-01
9.66050879e-06 -8.28225295e-01  -1.9129838040e+00   1.3667287400e-08   9.9997278785e-01
9.77237221e-06 -8.28225182e-01  -1.9129831203e+00   1.3825527271e-08   9.9997247276e-01
9.88553095e-06 -8.28225068e-01  -1.9129824286e+00   1.3985599034e-08   9.9997215402e-01
1.00000000e-05 -8.28224953e-01  -1.9129817289e+00   1.4147523889e-08   9.9997183158e-01
1.01157945e-05 -8.28224836e-01  -1.9129810212e+00   1.4311323286e-08   9.9997150541e-01
1.02329299e-05 -8.28224718e-01  -1.9129803052e+00   1.4477018921e-08   9.9997117547e-01
1.03514217e-05 -8.28224599e-01  -1.9129795810e+00   1.4644632741e-08   9.9997084170e-01
1.04712855e-05 -8.28224478e-01  -1.9129788483e+00   1.4814186947e-08   9.9997050407e-01
1.05925373e-05 -8.28224356e-01  -1.9129781072e+00   1.4985703997e-08   9.9997016253e-01
1.07151931e-05 -8.28224232e-01  -1.9129773575e+00   1.5159206609e-08   9.9996981704e-01
1.08392691e-05 -8.28224107e-01  -1.9129765991e+00   1.5334717765e-08   9.9996946755e-01
1.09647820e-05 -8.28223981e-01  -1.9129758320e+00   1.5512260710e-08   9.9996911401e-01
1.10917482e-05 -8.28223853e-01  -1.9129750559e+00   1.5691858961e-08   9.9996875637e-01
1.12201845e-05 -8.28223724e-01  -1.9129742709e+00   1.5873536305e-08   9.9996839460e-01
1.13501082e-05 -8.28223593e-01  -1.9129734768e+00   1.6057316804e-08   9.9996802863e-01
1.14815362e-05 -8.28223460e-01  -1.9129726734e+00   1.6243224801e-08   9.9996765843e-01
1.16144861e-05 -8.28223326e-01  -1.9129718608e+00   1.6431284918e-08   9.9996728394e-01
1.17489755e-05 -8.28223191e-01  -1.9129710388e+00   1.6621522063e-08   9.9996690512e-01
1.18850223e-05 -8.28223054e-01  -1.9129702072e+00   1.6813961433e-08   9.9996652190e-01
1.20226443e-05 -8.28222915e-01  -1.9129693661e+00   1.7008628513e-08   9.9996613426e-01
1.21618600e-05 -8.28222775e-01  -1.9129685152e+00   1.7205549087e-08   9.9996574212e-01
1.23026877e-05 -8.28222633e-01  -1.9129676544e+00   1.7404749235e-08   9.9996534544e-01
1.24451461e-05 -8.28222490e-01  -1.9129667837e+00   1.7606255341e-08   9.9996494417e-01
1.25892541e-05 -8.28222344e-01  -1.9129659028e+00   1.7810094091e-08   9.9996453826e-01
1.27350308e-05 -8.28222198e-01  -1.9129650118e+00   1.8016292481e-08   9.9996412764e-01
1.28824955e-05 -8.28222049e-01  -1.9129641105e+00   1.8224877821e-08   9.9996371227e-01
1.30316678e-05 -8.28221899e-01  -1.9129631987e+00   1.8435877734e-08   9.9996329209e-01
1.31825674e-05 -8.28221747e-01  -1.9129622764e+00   1.8649320166e-08   9.9996286704e-01
1.33352143e-05 -8.28221593e-01  -1.9129613434e+00   1.8865233383e-08   9.9996243707e-01
